time (s)	magX	magY	magZ
6816.315136	335.267090	-348.520782	-777.243164
6816.318471	341.929840	-347.468750	-743.753967
6816.321801	346.547028	-346.416718	-709.797180
6816.324729	349.527740	-344.604919	-675.431335
6816.328036	351.514893	-342.559326	-643.753967
6816.331371	352.566925	-339.403290	-610.381653
6816.334704	353.151367	-336.071899	-579.171875
6816.338056	352.333130	-332.798950	-549.072449
6816.341374	350.638214	-328.064880	-519.148437
6816.344705	348.417297	-323.389252	-489.750427
6816.348039	345.319672	-319.005859	-462.105804
6816.351366	340.877838	-313.219788	-434.110474
6816.354702	337.195770	-308.018127	-408.978973
6816.358039	332.111023	-302.232056	-383.204559
6816.361372	326.850952	-296.270630	-359.066650
6816.364706	320.772614	-290.484528	-336.915863
6816.368058	315.395660	-283.938629	-315.641754
6816.371375	309.142029	-277.392761	-294.367645
6816.374699	302.420807	-271.022217	-274.262421
6816.378041	296.342468	-263.950348	-256.670380
6816.381367	289.796600	-256.527771	-239.370529
6816.384701	283.426056	-250.215652	-222.129166
6816.388030	276.471069	-243.611343	-207.225601
6816.391370	269.925171	-236.422562	-191.971359
6816.394705	263.028625	-229.175339	-177.710693
6816.398030	256.716553	-223.097015	-165.028046
6816.401420	249.469299	-216.317368	-153.572769
6816.404698	243.098755	-209.070129	-141.533020
6816.408031	236.319122	-202.933365	-130.837524
6816.411382	229.773224	-196.679703	-121.544708
6816.414701	223.811798	-190.659851	-111.725891
6816.418031	217.616577	-184.990646	-103.777328
6816.422682	205.810638	-173.476913	-89.575104
6816.425586	200.550568	-168.333725	-82.269432
6816.428909	195.173584	-163.132080	-75.781998
6816.432327	189.796600	-158.456451	-69.528351
6816.435661	185.062531	-153.897720	-64.151375
6816.438903	180.211563	-149.397415	-59.300411
6816.441811	175.828171	-144.955566	-54.449448
6816.445132	170.684982	-140.864410	-49.540035
6816.448448	165.892456	-136.656342	-44.630627
6816.451782	162.268829	-133.208054	-40.890121
6816.455132	157.885437	-129.000000	-37.149620
6816.458028	153.443604	-125.434837	-34.227352
6816.461360	149.410858	-122.220345	-30.545296
6816.464691	145.436584	-119.064293	-27.389248
6816.468025	141.637634	-115.908241	-23.298073
6816.471358	138.072479	-112.401527	-20.492695
6816.474689	134.273529	-109.713036	-18.037991
6816.478024	130.533020	-106.966103	-14.823496
6816.481366	127.610756	-104.277611	-12.836354
6816.484723	123.461128	-101.413795	-10.849212
6816.488027	120.772644	-99.017540	-8.978961
6816.491356	117.382820	-96.212151	-6.991819
6816.494692	113.934540	-93.640556	-4.712450
6816.498035	110.486267	-91.244308	-2.783754
6816.501360	108.031555	-88.146706	-1.205729
6816.504689	105.226181	-85.808891	-0.562830
6816.508025	102.245468	-83.938637	1.950319
6816.511357	99.673874	-81.659264	3.645237
6816.514690	96.985382	-79.672127	5.398596
6816.518017	94.764465	-77.392754	6.801285
6816.521355	92.309753	-75.405617	7.444183
6816.524687	90.322617	-73.126251	8.379309
6816.528043	87.984802	-71.723564	9.665108
6816.531349	86.114548	-69.970200	10.308006
6816.534685	84.010513	-67.866165	11.067795
6816.538020	81.964928	-65.995911	12.178257
6816.541355	79.744003	-64.359444	12.704266
6816.544687	78.399765	-63.248978	13.464054
6816.548025	76.646400	-61.261841	14.106953
6816.552645	73.957916	-58.456459	14.925190
6816.555541	71.970772	-57.229111	15.568089
6816.558861	70.918762	-56.060204	15.334305
6816.562231	69.749847	-54.599068	15.918758
6816.565559	68.522499	-53.254822	16.094097
6816.568946	67.353592	-52.085915	15.918758
6816.571843	66.009346	-50.975456	16.035648
6816.575180	64.606659	-50.507889	17.087666
6816.578442	63.496201	-49.689659	18.081238
6816.581777	62.385735	-48.286964	17.730564
6816.585129	61.216827	-47.351845	17.321445
6816.588436	60.340149	-47.001167	18.139683
6816.591344	58.879017	-46.358276	18.490353
6816.594676	58.119225	-45.247810	17.321445
6816.598017	57.242546	-44.371132	17.555229
6816.601347	56.132084	-43.552902	18.315018
6816.604680	55.547630	-42.734665	17.730564
6816.608014	53.852715	-42.267105	18.724140
6816.611344	52.508472	-40.864410	19.191700
6816.614699	52.099354	-40.455292	19.425484
6816.618009	50.813557	-40.338402	18.548798
6816.621343	50.053768	-39.403275	18.841030
6816.624688	49.293976	-38.351265	18.782585
6816.628025	48.417297	-38.818825	18.548798
6816.631343	48.241962	-38.292816	19.659264
6816.634679	47.073055	-37.357689	18.782585
6816.638010	46.196373	-37.123909	18.841030
6816.641346	45.904148	-36.364120	18.899475
6816.644671	45.085911	-36.188782	18.899475
6816.648011	44.384567	-35.253654	19.133255
6816.651346	43.741669	-34.902985	19.074810
6816.654671	43.215660	-34.493866	19.367039
6816.658025	42.631207	-34.435417	19.659264
6816.661340	42.806541	-33.149620	18.957920
6816.664672	41.754528	-33.500298	19.133255
6816.668008	41.696083	-32.915840	19.717709
6816.671335	41.286964	-32.389832	19.133255
6816.674674	40.819401	-31.688486	18.490353
6816.678005	40.351837	-31.805376	19.016365
6816.681336	40.410282	-31.104033	19.776154
6816.685652	39.767384	-29.935125	19.367039
6816.688931	39.592049	-30.110464	18.957920
6816.692189	39.241379	-29.759794	18.957920
6816.695561	39.066040	-29.350672	18.782585
6816.698879	38.540031	-29.292231	18.841030
6816.702214	38.306252	-28.649328	19.133255
6816.705099	38.715370	-28.590887	18.957920
6816.708447	38.423141	-28.298655	19.016365
6816.711808	37.663353	-28.357103	18.724140
6816.715149	37.663353	-27.597311	18.782585
6816.718451	37.663353	-27.480421	18.081238
6816.721334	37.663353	-27.597311	18.724140
6816.724671	36.903564	-27.246641	18.724140
6816.728000	36.845116	-27.597311	18.665691
6816.731337	37.020454	-27.305090	19.016365
6816.734669	36.786671	-27.305090	17.146111
6816.738023	36.435997	-26.837526	18.022793
6816.741331	36.026882	-26.895967	18.373463
6816.744666	36.143772	-27.012857	17.905899
6816.747999	36.435997	-26.720636	18.315018
6816.751331	36.202217	-27.363531	18.724140
6816.754668	36.026882	-27.188196	17.905899
6816.757994	36.319107	-27.363531	18.139683
6816.761331	36.494446	-27.071306	18.607246
6816.764664	36.026882	-27.480421	18.373463
6816.767994	35.559319	-27.012857	17.672119
6816.771330	35.500874	-27.305090	18.315018
6816.774668	36.143772	-27.071306	18.373463
6816.777995	36.026882	-27.012857	17.789009
6816.781354	35.968437	-27.305090	18.198128
6816.784661	36.026882	-27.363531	18.665691
6816.788003	36.026882	-27.129751	18.081238
6816.791331	36.377556	-27.305090	17.905899
6816.794658	37.137344	-27.831095	18.198128
6816.797992	36.377556	-27.480421	18.198128
6816.801328	36.377556	-27.772650	18.899475
6816.804658	36.435997	-27.363531	17.672119
6816.807993	36.845116	-27.772650	18.256573
6816.811321	37.195789	-28.006433	17.730564
6816.814660	37.429573	-28.415548	18.139683
6816.818931	38.306252	-28.240213	17.730564
6816.822262	38.364697	-27.831095	18.315018
6816.825624	38.364697	-28.766218	18.782585
6816.828839	38.540031	-28.590887	19.367039
6816.832187	39.007595	-28.707777	17.730564
6816.835508	39.007595	-28.941557	18.198128
6816.838416	39.299820	-29.292231	18.665691
6816.841740	40.234947	-30.052015	18.899475
6816.845087	40.527176	-30.344244	19.074810
6816.848453	41.170074	-29.701345	18.198128
6816.851770	41.403854	-30.694918	18.373463
6816.854652	41.812973	-30.928698	17.613674
6816.858017	42.105198	-31.513151	18.139683
6816.861324	42.222092	-32.039154	17.964348
6816.864659	43.157215	-32.272942	18.022793
6816.868010	43.274105	-32.448280	18.431908
6816.871314	43.332550	-32.974289	18.198128
6816.874654	44.267677	-33.558746	18.841030
6816.877991	44.559902	-34.143196	18.256573
6816.881317	45.085911	-34.435417	18.548798
6816.884648	45.553474	-34.902985	18.665691
6816.887985	46.371712	-35.721222	18.665691
6816.891321	47.073055	-36.247231	18.373463
6816.894647	46.897717	-36.247231	18.607246
6816.897980	47.715954	-37.007019	18.490353
6816.901321	48.417297	-37.299248	18.490353
6816.904647	49.410870	-38.351265	17.730564
6816.907983	50.229103	-39.052605	18.256573
6816.911332	50.462883	-39.870842	17.789009
6816.914646	51.398010	-40.221512	18.256573
6816.917985	52.274689	-40.630623	18.373463
6816.921316	52.333138	-41.215080	18.782585
6816.924649	54.378723	-42.442436	17.964348
6816.927983	55.430740	-42.617775	17.438339
6816.931316	55.956749	-43.962013	17.964348
6816.934651	57.184101	-45.014030	17.730564
6816.937979	57.885445	-45.715370	17.379894
6816.941316	59.989479	-46.592056	17.146111
6816.944648	60.515484	-46.708946	16.269432
6816.949265	62.327293	-48.812981	16.035648
6816.952213	64.489769	-49.222092	15.801868
6816.955586	65.483337	-50.975456	15.100525
6816.958899	66.476913	-51.852135	14.983635
6816.962253	68.113380	-52.787262	15.451199
6816.965500	70.042076	-53.605499	14.866745
6816.968393	71.386322	-54.949745	14.340736
6816.971728	73.139679	-56.060204	13.288719
6816.975075	74.133255	-57.579781	13.288719
6816.978398	75.828171	-58.222679	12.938046
6816.981729	77.347748	-60.034485	12.119812
6816.984663	79.159554	-61.378731	11.301579
6816.987982	80.445351	-63.424316	11.418468
6816.991308	82.549385	-64.300995	10.775570
6816.994644	84.127411	-65.879021	10.132671
6816.997976	86.582115	-68.099945	9.489769
6817.001322	88.393921	-69.385750	8.320864
6817.004645	90.790176	-71.314438	7.327291
6817.007973	92.894211	-73.126251	6.567503
6817.011308	94.764465	-75.113388	4.814142
6817.014640	96.868500	-77.801880	4.697252
6817.017973	98.504967	-79.438347	3.469900
6817.021305	101.368790	-81.425484	2.359438
6817.024633	103.355927	-83.821747	1.774984
6817.027971	105.985970	-85.867325	1.073641
6817.031302	108.206894	-88.789597	-0.212158
6817.034634	111.187607	-91.127411	-1.088837
6817.037977	114.109871	-93.757454	-3.251316
6817.041307	117.207474	-96.445938	-5.180012
6817.044635	120.655754	-98.666862	-6.991819
6817.047969	123.110458	-101.530693	-7.810054
6817.051303	126.324959	-104.160728	-10.264759
6817.054638	129.714783	-106.907661	-12.076565
6817.057964	133.163055	-109.771477	-14.940387
6817.061300	137.312683	-113.161308	-17.511982
6817.064661	141.053177	-116.726479	-20.142023
6817.067964	145.202805	-120.116310	-24.876097
6817.071300	149.001755	-123.272346	-27.856810
6817.074638	153.618927	-127.012871	-31.363531
6817.079265	162.970184	-134.376968	-39.370544
6817.082154	167.996490	-138.000580	-43.169495
6817.085529	173.081238	-142.150192	-47.903564
6817.088836	178.458221	-146.299820	-53.280537
6817.092284	183.601410	-150.274109	-58.949738
6817.095598	189.036835	-155.534180	-64.443604
6817.098397	194.355347	-159.216248	-71.924606
6817.101721	200.258331	-163.833420	-78.295151
6817.105060	205.985962	-168.509048	-86.126831
6817.108397	212.239624	-173.418472	-93.315598
6817.111718	217.908813	-178.795425	-101.088837
6817.114650	224.220917	-183.295731	-110.323212
6817.117966	230.123901	-188.789597	-119.732910
6817.121294	236.260651	-193.640564	-129.843948
6817.124630	241.812958	-199.660416	-140.071884
6817.127959	248.066620	-204.686737	-152.053177
6817.131290	254.261841	-210.355927	-162.514908
6817.134625	260.047913	-215.791336	-175.080643
6817.137959	266.593811	-221.811218	-188.289307
6817.141287	272.847443	-227.772629	-201.497955
6817.144649	278.399750	-233.967850	-215.758621
6817.147969	285.413208	-241.156631	-231.714188
6817.151286	291.316193	-246.884262	-247.669785
6817.154625	297.394501	-253.547043	-264.735840
6817.157985	303.472809	-259.683807	-282.386322
6817.161290	308.849792	-266.288147	-300.738190
6817.164626	314.928101	-273.067810	-320.843384
6817.167960	320.305054	-279.555237	-341.416138
6817.171302	325.682037	-286.510254	-362.982483
6817.174627	330.766815	-292.880798	-387.061951
6817.177958	334.916412	-298.959106	-411.901245
6817.181289	339.825836	-304.569855	-436.506744
6817.184620	343.800079	-309.771484	-462.982483
6817.187952	347.423737	-316.083588	-490.685577
6817.191285	350.872009	-320.525452	-520.025146
6817.194621	353.735809	-325.259521	-549.656921
6817.197953	355.489197	-329.467560	-580.282288
6817.201303	356.950317	-332.798950	-612.251892
6817.204616	357.008759	-335.019897	-645.039734
6817.207952	356.833405	-337.533020	-678.061401
6817.212232	352.333130	-339.929291	-746.617798
6817.215466	347.949738	-339.695526	-780.749878
6817.218805	343.157196	-338.877289	-815.349548
6817.222154	336.435974	-336.890137	-849.598511
6817.225495	329.188782	-334.786102	-884.665710
6817.228819	319.954407	-330.461121	-918.739319
6817.231773	309.317352	-325.317932	-952.286987
6817.235068	297.394501	-319.824097	-984.081299
6817.238394	284.361176	-313.044434	-1016.401489
6817.241702	269.632965	-305.504974	-1046.383911
6817.245069	253.209808	-297.381073	-1073.853271
6817.247948	234.741089	-287.270020	-1101.205688
6817.251286	214.869659	-276.632965	-1125.402100
6817.254617	194.004669	-264.476349	-1147.552856
6817.257954	172.029221	-252.378128	-1167.833374
6817.261278	147.949738	-239.461716	-1184.607178
6817.264618	123.694916	-225.493271	-1198.926392
6817.267945	98.914078	-210.122147	-1210.615479
6817.271279	72.438339	-195.218582	-1218.973145
6817.274638	45.261250	-179.146118	-1225.168335
6817.277948	18.201050	-162.430740	-1227.915283
6817.281276	-8.625366	-145.130920	-1227.915283
6817.284612	-35.627121	-127.129753	-1225.694336
6817.287946	-62.979546	-109.128593	-1220.141968
6817.291273	-90.039742	-91.244308	-1211.901245
6817.294623	-116.457054	-72.541794	-1201.322632
6817.297951	-142.114563	-53.780838	-1188.406128
6817.301282	-166.194061	-35.370544	-1172.333740
6817.304611	-189.630615	-17.369375	-1153.514282
6817.307948	-212.599670	1.333138	-1133.935181
6817.311276	-233.756866	18.866743	-1112.135010
6817.314606	-254.855652	36.867912	-1089.107544
6817.317972	-273.090607	54.284626	-1064.735840
6817.321272	-291.208679	71.350670	-1039.896606
6817.324605	-307.865601	86.955582	-1012.953308
6817.327946	-322.535370	102.326706	-985.951538
6817.331285	-336.912903	116.821152	-957.547119
6817.334608	-348.368225	131.081833	-928.908813
6817.337939	-358.713043	144.290466	-899.452393
6817.341275	-367.947418	157.206894	-870.346558
6817.345534	-382.734070	178.364120	-810.089478
6817.348875	-388.169495	188.358276	-780.399170
6817.352147	-392.377594	196.949753	-751.819458
6817.355457	-396.351837	204.021637	-723.824097
6817.358781	-398.339020	211.502640	-694.718323
6817.361731	-400.267670	216.996490	-666.489197
6817.365029	-400.501465	221.438339	-639.078369
6817.368362	-400.676788	225.178848	-611.784363
6817.371712	-399.800140	228.744003	-586.945068
6817.375055	-397.813019	230.848053	-560.820007
6817.378384	-395.124512	232.776733	-535.337830
6817.381275	-393.254242	233.302765	-511.550568
6817.384602	-389.104614	234.120987	-488.055511
6817.387932	-386.007050	233.887192	-466.313843
6817.391271	-381.039154	232.952072	-444.747559
6817.394605	-376.538879	231.666275	-423.707214
6817.397934	-372.798370	229.620697	-404.128021
6817.401267	-367.012299	227.633545	-385.483948
6817.404628	-361.810669	225.646408	-366.489197
6817.407936	-356.492096	222.548813	-349.189392
6817.411266	-350.998291	219.158966	-332.649323
6817.414594	-345.212158	215.652252	-316.869110
6817.417940	-339.659851	212.905319	-300.913513
6817.421265	-332.763306	209.457047	-286.594391
6817.424596	-327.853882	205.891891	-272.742859
6817.427933	-321.308014	202.209824	-259.241974
6817.431263	-314.879028	198.469315	-246.208633
6817.434598	-307.865601	194.611938	-234.285797
6817.437930	-301.495056	190.345413	-223.473404
6817.441261	-294.773834	187.130920	-212.485672
6817.444621	-288.578613	183.448868	-201.556396
6817.447930	-282.441864	179.182358	-191.270004
6817.451259	-275.954437	175.909409	-182.795441
6817.454588	-269.350098	173.162491	-173.561081
6817.457926	-263.213348	169.480423	-165.203384
6817.461260	-256.842804	165.623032	-156.261246
6817.464590	-251.115143	162.642319	-148.663345
6817.467927	-244.919952	159.194046	-141.007019
6817.471260	-239.542969	155.921097	-134.987152
6817.475480	-228.087677	149.550552	-121.836945
6817.478806	-222.652252	146.978958	-115.933960
6817.482207	-217.801300	143.530685	-110.673874
6817.485530	-211.722992	141.134430	-105.121567
6817.488849	-207.222687	138.387482	-99.861481
6817.492108	-202.254822	135.173004	-94.776733
6817.495021	-198.046783	132.835190	-90.334900
6817.498347	-193.488007	130.088257	-85.600815
6817.501680	-189.279938	127.399757	-81.801865
6817.505011	-184.721222	125.061951	-77.593811
6817.508343	-180.863831	122.724136	-73.327293
6817.511255	-176.597321	120.444763	-69.586792
6817.514591	-172.798370	117.814728	-66.080070
6817.517942	-169.174744	115.652245	-63.274696
6817.521254	-165.726471	113.139099	-60.118645
6817.524603	-161.927521	110.742836	-56.962597
6817.527929	-158.537720	108.580360	-54.917011
6817.531251	-155.673889	106.534775	-52.111633
6817.534589	-152.459381	104.606071	-49.247810
6817.537916	-150.004700	102.385155	-46.208649
6817.541251	-146.673279	100.339561	-43.461720
6817.544583	-143.926361	98.703094	-42.585037
6817.547911	-141.471649	95.897713	-40.247223
6817.551251	-138.432495	94.495033	-38.376976
6817.554584	-135.977783	92.624779	-36.740501
6817.557916	-133.581543	90.696083	-34.402687
6817.561272	-131.009949	89.001167	-32.707775
6817.564584	-128.789032	87.130920	-30.895969
6817.567919	-126.743431	85.845123	-29.493279
6817.571250	-124.113380	84.383987	-28.149036
6817.574582	-121.191124	82.805954	-26.980129
6817.577909	-119.613106	81.753944	-25.285213
6817.581248	-116.866158	79.591461	-23.999416
6817.584587	-115.521919	78.539452	-22.596727
6817.587947	-113.593224	77.253654	-22.070721
6817.591253	-111.606087	76.493858	-20.317360
6817.594583	-109.443611	74.857391	-18.680889
6817.597913	-107.690239	73.922264	-17.745764
6817.601253	-106.346001	73.045586	-17.044418
6817.605914	-103.482170	71.175331	-15.933958
6817.608796	-101.144356	70.298653	-13.888371
6817.612122	-99.800117	69.831093	-13.420808
6817.615454	-98.046761	68.779076	-12.719463
6817.618843	-96.644066	67.434830	-12.777908
6817.622207	-95.416710	66.675041	-11.784337
6817.625013	-93.897148	66.149033	-10.790767
6817.628359	-92.202217	65.564583	-9.504969
6817.631670	-90.565758	64.512566	-9.563414
6817.635005	-90.156639	64.161896	-8.569843
6817.638327	-88.753960	62.992989	-8.803624
6817.641241	-87.117485	62.116302	-8.394507
6817.644574	-86.240791	61.590294	-7.810054
6817.647919	-85.188789	60.772060	-7.459382
6817.651244	-84.136757	60.246052	-7.108710
6817.654575	-82.909401	59.895378	-6.933373
6817.657910	-82.558739	58.609581	-5.647575
6817.661235	-81.389839	58.142021	-5.998247
6817.664573	-81.272942	57.908241	-5.238457
6817.667908	-79.694923	56.797775	-5.063122
6817.671242	-78.701347	56.622444	-4.069551
6817.674578	-78.526009	56.213326	-4.595558
6817.677937	-77.941566	55.745762	-3.485098
6817.681236	-77.181770	55.511978	-3.835770
6817.684567	-77.006432	54.401520	-4.537113
6817.687903	-76.305092	54.050846	-4.127996
6817.691256	-75.311516	54.226181	-3.543543
6817.694568	-75.428398	53.349503	-3.075981
6817.697903	-74.610176	52.998829	-2.900644
6817.701232	-74.493279	52.589714	-3.192871
6817.704568	-73.675049	52.355930	-3.309761
6817.707905	-73.090591	51.537697	-2.608418
6817.711236	-72.915260	52.180595	-2.199301
6817.714567	-72.506142	51.420807	-2.082409
6817.717899	-72.564583	51.011688	-1.673290
6817.721232	-71.629456	51.362358	-2.374636
6817.724566	-70.869675	50.661015	-1.381063
6817.727904	-70.869675	51.187027	-1.381063
6817.731234	-70.460548	50.602570	-0.855057
6817.734584	-70.109879	50.485680	-1.381063
6817.738754	-69.759201	50.485680	-1.030392
6817.742086	-68.940971	50.368790	-1.030392
6817.745427	-68.882530	49.316772	-1.147284
6817.748772	-68.239632	50.018116	-0.796610
6817.752150	-67.947403	49.725891	-1.322618
6817.755017	-67.772072	50.076561	-1.088837
6817.758343	-67.070724	49.550552	-0.796610
6817.761676	-67.012276	49.725891	-1.264174
