time (s)	magX	magY	magZ
7067.298529	-148.835785	-82.594437	0.255417
7067.301861	-146.439514	-81.308640	0.839870
7067.305189	-144.861511	-80.431969	1.424324
7067.308527	-143.166595	-79.029274	3.060795
7067.311863	-141.471680	-77.685028	3.586802
7067.315192	-139.835205	-77.100578	3.820583
7067.318523	-138.315613	-76.165451	4.697264
7067.321879	-137.029816	-75.522545	5.457052
7067.325192	-135.860901	-74.412086	6.275288
7067.328519	-134.049103	-73.710747	6.216843
7067.331859	-132.354187	-72.541840	6.684404
7067.335190	-131.360626	-72.132721	7.268858
7067.338521	-130.016388	-71.314484	7.794867
7067.341857	-129.198151	-70.613136	8.028648
7067.346490	-125.866768	-69.619576	8.613102
7067.349400	-124.814735	-69.385796	10.191128
7067.352748	-124.113396	-68.625999	9.957348
7067.356139	-123.002937	-68.450661	10.191128
7067.359517	-122.067818	-67.398643	12.295158
7067.362717	-121.074242	-67.047974	11.360035
7067.366064	-119.905327	-66.521965	11.243145
7067.368956	-118.911766	-66.463524	11.886044
7067.372277	-118.327309	-66.521965	12.353607
7067.375607	-117.333733	-65.995956	12.528942
7067.378944	-116.164833	-65.294617	11.535370
7067.382270	-115.580391	-64.476379	12.061378
7067.385183	-115.054375	-64.417931	13.113396
7067.388513	-114.177696	-64.534821	13.230286
7067.391849	-113.651680	-64.943947	12.996506
7067.395186	-112.658119	-64.242599	13.522511
7067.398540	-112.424324	-63.950371	13.230286
7067.401890	-112.015221	-63.482803	13.580956
7067.405185	-111.138542	-63.365913	14.399193
7067.408529	-110.612526	-62.956802	14.399193
7067.411850	-110.261848	-62.839912	14.282303
7067.415183	-109.618950	-62.898354	13.873184
7067.418518	-108.917610	-62.956802	14.165409
7067.421849	-109.034492	-62.839912	14.516083
7067.425183	-108.683830	-62.781464	13.873184
7067.428517	-108.566933	-62.547684	14.399193
7067.431849	-107.982491	-62.021675	14.340748
7067.435176	-107.631813	-62.197006	13.990074
7067.438512	-108.040932	-62.430794	14.516083
7067.441843	-107.807152	-61.904785	14.340748
7067.445205	-107.398033	-61.495667	14.632973
7067.448513	-107.456474	-61.729446	14.399193
7067.451842	-106.988914	-61.261887	14.399193
7067.455188	-107.456474	-60.268318	14.282303
7067.458515	-107.398033	-61.028099	14.223858
7067.461843	-107.105812	-61.378777	14.632973
7067.465181	-107.105812	-61.261887	14.516083
7067.468508	-107.047356	-61.320335	14.516083
7067.471841	-107.164238	-61.671005	14.866756
7067.475176	-107.281136	-61.261887	14.925201
7067.478513	-107.514915	-61.203445	14.632973
7067.483189	-107.573372	-61.904785	14.632973
7067.486049	-108.099373	-61.787895	13.990074
7067.489470	-107.924034	-61.787895	13.756294
7067.492757	-108.450050	-62.606133	14.399193
7067.496110	-108.274712	-62.197006	14.399193
7067.499363	-108.976051	-62.839912	14.165409
7067.502263	-109.326729	-63.132133	14.340748
7067.505591	-109.969627	-63.015244	13.405621
7067.508929	-109.443626	-63.833481	13.697849
7067.512286	-111.080086	-64.008820	13.639404
7067.515590	-110.612526	-64.593269	13.288731
7067.518947	-111.313866	-65.002388	13.171841
7067.521835	-111.898323	-65.703728	12.762722
7067.525167	-112.950340	-65.820618	12.119823
7067.528563	-112.833443	-65.762177	13.054951
7067.531861	-113.476357	-66.580414	12.236713
7067.535173	-114.236137	-67.047974	11.827599
7067.538507	-114.995918	-67.164864	12.119823
7067.541833	-115.521935	-68.216881	11.769154
7067.545166	-116.281731	-68.859779	11.769154
7067.548501	-116.807732	-69.327347	11.067806
7067.551834	-117.859749	-70.262474	11.184700
7067.555172	-117.918205	-70.554703	10.366463
7067.558498	-119.145546	-71.139153	9.840454
7067.561832	-120.197563	-71.372932	9.606672
7067.565165	-121.483360	-72.308052	9.489780
7067.568498	-122.126259	-72.892517	8.496210
7067.571831	-123.119835	-73.301628	8.613102
7067.575170	-124.288750	-73.360077	7.151968
7067.578499	-125.516090	-74.470535	7.853312
7067.581830	-125.925209	-75.288765	6.801296
7067.585163	-128.029236	-75.990105	6.099951
7067.588498	-129.373474	-76.925232	6.392178
7067.591829	-130.191711	-77.509697	5.223272
7067.595187	-131.009949	-77.801926	5.690834
7067.598506	-133.230896	-79.029274	5.632389
7067.601830	-134.633575	-79.555275	4.872601
7067.605201	-135.860901	-80.315071	4.288147
7067.608492	-137.322052	-81.659309	3.995920
7067.611827	-138.198730	-82.652885	2.593229
7067.616478	-141.647003	-83.997124	1.307432
7067.619392	-143.984833	-85.633591	0.606089
7067.622704	-145.329071	-87.328506	-0.036810
7067.626094	-148.134460	-88.614311	-0.387482
7067.629426	-149.069580	-89.666321	-1.264162
7067.632719	-151.582733	-91.536575	-2.374624
7067.635622	-152.868500	-93.114609	-3.251305
7067.638924	-155.323212	-93.465271	-4.186430
7067.642261	-157.310364	-95.160187	-5.413782
7067.645580	-159.297485	-97.030441	-7.284035
7067.648924	-161.985992	-98.257790	-8.160714
7067.652249	-164.265350	-99.777367	-9.446512
7067.655153	-166.486298	-101.939842	-10.206302
7067.658490	-168.707214	-103.459435	-11.433654
7067.661837	-170.928131	-104.569893	-12.953234
7067.665158	-173.558167	-106.790825	-14.648149
7067.668496	-176.188202	-109.245522	-17.102854
7067.671823	-179.636475	-111.115776	-18.096424
7067.675153	-182.208099	-113.278252	-20.142012
7067.678489	-184.721222	-114.680931	-21.486256
7067.681823	-187.643494	-117.661644	-24.583858
7067.685157	-190.507324	-119.181236	-26.980118
7067.688486	-193.488037	-121.402153	-29.025705
7067.691850	-196.585632	-123.915306	-30.662176
7067.695153	-200.150818	-125.785561	-33.350662
7067.698482	-203.599060	-128.649384	-35.396248
7067.701824	-206.462891	-130.344299	-38.727634
7067.705159	-210.261841	-132.623672	-41.766792
7067.708483	-214.645233	-134.961487	-44.338387
7067.711820	-218.444214	-137.766861	-47.494438
7067.715149	-221.834045	-140.163116	-51.468719
7067.718486	-226.275879	-143.436066	-53.748089
7067.721812	-230.483948	-146.124542	-57.430149
7067.725151	-234.808899	-148.520798	-61.696655
7067.728487	-238.724731	-152.144424	-66.196953
7067.731814	-243.341919	-154.716019	-70.171234
7067.735194	-248.017548	-157.755173	-74.028625
7067.738483	-252.810059	-160.911224	-79.347153
7067.741813	-257.193481	-164.125717	-83.847443
7067.745149	-262.336670	-166.814194	-88.873749
7067.749797	-271.921692	-173.944534	-99.803024
7067.752664	-277.006439	-177.626602	-106.524246
7067.756020	-281.682068	-181.308640	-111.959663
7067.759362	-287.117493	-184.698471	-117.862648
7067.762737	-291.384003	-188.731201	-125.518990
7067.766105	-295.767395	-192.004150	-132.473969
7067.769340	-301.378143	-196.329102	-140.364105
7067.772240	-307.456451	-200.770966	-149.014008
7067.775565	-312.658112	-204.862137	-157.137909
7067.778934	-318.151978	-208.602631	-165.729401
7067.782228	-323.236725	-213.102921	-173.911743
7067.785571	-328.146118	-218.363007	-183.672119
7067.788477	-333.873779	-223.213974	-192.731140
7067.791809	-339.484528	-228.064926	-204.011078
7067.795141	-344.569275	-232.682114	-214.998840
7067.798475	-350.180023	-237.533066	-226.337219
7067.801808	-355.381653	-242.208694	-237.850952
7067.805138	-361.167725	-247.644119	-249.014008
7067.808518	-366.778503	-252.670425	-262.105774
7067.811813	-371.746368	-257.638275	-275.781982
7067.815142	-377.590912	-262.664581	-290.276428
7067.818477	-382.792542	-267.632416	-304.069550
7067.821819	-388.461700	-273.009399	-319.031555
7067.825144	-392.552917	-277.801910	-335.630005
7067.828475	-398.572754	-283.003540	-351.001129
7067.831810	-402.780853	-287.737640	-368.242523
7067.835137	-407.047333	-292.471680	-386.535919
7067.838472	-412.132080	-296.621307	-404.946198
7067.841804	-416.047943	-300.770935	-423.765625
7067.845140	-419.613098	-305.680328	-442.585022
7067.848473	-423.587402	-309.654633	-462.982452
7067.851824	-427.327881	-312.810669	-484.198120
7067.855136	-430.133270	-317.135651	-504.887756
7067.858467	-432.880188	-319.590363	-526.980103
7067.861796	-434.341309	-323.330841	-549.423157
7067.865141	-435.568695	-325.668671	-571.866211
7067.868470	-436.036224	-329.058472	-595.127441
7067.871865	-436.503815	-331.104095	-619.031555
7067.875139	-435.860901	-333.032776	-644.221497
7067.878467	-434.925781	-333.967896	-668.301025
7067.881806	-432.120392	-334.844574	-694.426086
7067.886418	-425.165375	-335.955048	-743.987732
7067.889317	-420.723541	-335.604370	-768.534790
7067.892671	-414.762146	-334.610779	-795.770325
7067.896046	-408.099396	-333.617218	-820.668030
7067.899405	-400.033936	-332.156097	-847.436035
7067.902736	-391.793121	-330.578064	-873.151978
7067.905595	-381.974274	-326.545319	-898.108093
7067.908910	-371.220367	-324.265991	-922.830505
7067.912221	-359.005280	-320.291687	-947.494446
7067.915556	-345.679718	-315.616058	-972.509094
7067.918890	-331.360626	-310.648193	-995.302795
7067.922239	-316.807709	-305.212769	-1015.758606
7067.925127	-300.267700	-299.017578	-1036.974365
7067.928462	-282.734070	-292.004120	-1058.072998
7067.931794	-264.089996	-284.932251	-1077.126221
7067.935129	-244.686157	-276.632996	-1095.010620
7067.938487	-224.639404	-268.333771	-1111.199829
7067.941797	-204.066620	-258.631836	-1125.285278
7067.945128	-181.857391	-249.222153	-1139.721191
7067.948462	-160.466400	-239.578659	-1152.345337
7067.951802	-138.257172	-228.123367	-1162.398071
7067.955127	-114.469917	-216.258972	-1170.872559
7067.958464	-91.033333	-205.388123	-1176.892456
7067.961799	-66.953842	-192.822372	-1183.496826
7067.965132	-42.932808	-180.081314	-1186.886597
7067.968461	-19.087097	-167.457108	-1187.997070
7067.971798	5.635284	-154.540680	-1188.464600
7067.975126	29.539433	-140.689117	-1186.243774
7067.978459	53.735809	-126.720680	-1183.146118
7067.981814	77.815292	-113.044472	-1178.412109
7067.985123	101.251877	-99.134468	-1172.625977
7067.988458	123.928680	-85.399811	-1164.502075
7067.991785	146.371704	-71.489830	-1154.507935
7067.995127	168.639374	-57.112259	-1143.403198
7067.998454	189.913483	-44.429619	-1131.188232
7068.001790	211.070709	-30.694967	-1117.102905
7068.005129	231.059021	-17.486315	-1101.848633
7068.008457	250.229095	-4.569895	-1085.250244
7068.011789	269.048492	7.762075	-1068.067261
7068.015136	287.225006	19.568037	-1049.072510
7068.019748	318.902374	42.595505	-1009.797180
7068.022646	333.572174	53.232559	-989.107544
7068.025977	348.358856	62.817604	-968.826965
7068.029327	361.859741	72.168854	-946.910034
7068.032663	374.308594	80.994102	-923.999390
7068.036043	385.647003	89.001122	-901.848633
7068.038905	395.991791	97.300362	-879.230347
7068.042245	406.161285	104.430695	-856.611938
7068.045543	414.402069	110.742790	-833.233826
7068.048881	421.824646	117.054886	-809.972534
7068.052206	428.896545	122.022743	-786.302185
7068.055556	434.799530	127.575050	-763.099365
7068.058446	439.708923	132.542908	-739.838135
7068.061820	443.858551	136.867859	-718.154907
7068.065115	446.547028	139.556335	-695.594971
7068.068451	449.761536	143.705963	-673.093506
7068.071787	451.748688	146.920456	-650.416687
7068.075116	452.800690	149.316727	-628.791931
7068.078449	453.209808	151.946762	-607.634766
7068.081780	453.385132	153.758560	-587.821777
7068.085117	452.859131	156.330154	-567.190552
7068.088449	451.690216	157.089951	-546.734680
7068.091852	449.352417	158.784866	-527.447693
7068.095113	446.605499	159.953781	-508.452911
7068.098450	445.085907	160.772003	-489.691986
7068.101779	441.462280	161.239563	-471.632355
7068.105153	438.130920	161.882477	-454.274109
7068.108444	434.039734	162.291580	-437.850922
7068.111798	430.007019	162.525375	-421.427795
7068.115116	425.097595	162.466919	-405.238434
7068.118442	420.889526	162.174698	-390.802429
7068.121783	416.389221	161.590240	-375.314423
7068.125114	410.895386	162.174698	-361.287537
7068.128443	405.810608	161.765579	-347.377533
7068.131776	400.784332	161.122681	-334.168884
7068.135116	396.050232	160.421341	-321.661591
7068.138442	390.439484	159.427765	-309.212738
7068.141779	384.945648	158.609543	-296.763885
7068.145109	379.334869	157.615967	-284.899445
7068.148440	374.074799	156.388611	-273.677948
7068.151771	368.464050	155.102798	-263.800690
7068.156042	356.365845	152.355881	-242.059021
7068.159293	350.579773	150.719406	-232.766205
7068.162631	344.793671	148.498474	-223.239624
7068.165958	339.066040	147.212692	-215.057251
7068.169315	333.864410	145.634674	-206.816467
7068.172676	328.136749	143.472183	-197.699005
7068.175551	322.701324	141.426605	-189.458191
7068.178896	317.090576	139.848572	-181.451172
7068.182220	311.129150	137.686096	-174.496185
7068.185540	305.985962	134.939163	-166.956757
7068.188866	301.134979	133.770248	-159.651062
7068.191801	295.524231	131.081772	-152.929840
7068.195106	290.907043	129.445297	-146.851532
7068.198443	285.646973	127.107491	-140.247208
7068.201767	280.562225	125.646355	-133.759781
7068.205106	275.945038	123.074760	-128.382812
7068.208431	270.918732	121.321404	-123.005836
7068.211769	266.009338	119.568039	-117.570412
7068.215108	262.035065	117.580902	-113.537689
7068.218430	258.177643	116.178207	-108.978951
7068.221764	253.443604	114.658630	-104.829330
7068.225098	249.060181	112.729935	-100.504372
7068.228431	245.261230	111.035019	-95.945633
7068.231767	240.994720	109.223213	-92.380470
7068.235131	236.962006	107.586746	-89.458199
7068.238435	232.987701	106.184059	-85.308578
7068.241764	228.779633	104.606026	-81.392746
7068.245100	225.272919	103.378670	-78.645813
7068.248427	221.649323	101.917542	-74.788422
7068.251765	218.201050	100.865524	-73.093506
7068.255101	214.869659	100.222626	-69.119217
7068.258426	211.362915	98.469269	-66.664513
7068.261760	208.089996	97.358810	-64.209808
7068.265098	204.817047	95.956116	-61.579765
7068.268429	202.011688	94.611870	-59.008171
7068.271762	199.147858	93.793640	-56.670357
7068.275098	196.400909	92.449394	-55.092335
7068.278451	193.069550	91.455826	-52.988300
7068.281761	190.322601	90.462250	-49.949142
7068.285098	188.043243	89.585571	-47.845108
7068.289357	182.432495	86.780197	-44.163052
7068.292689	179.451752	86.195740	-41.825237
7068.295942	177.347717	85.085281	-41.299229
7068.299275	174.483917	84.091705	-38.961418
7068.302624	172.204529	83.273468	-37.149609
7068.305958	168.931610	82.163010	-36.506710
7068.308855	166.886017	80.994102	-33.759781
7068.312203	164.723541	80.292755	-32.941544
7068.315537	162.736389	79.182297	-31.363520
7068.318869	161.275269	78.130280	-29.376377
7068.322221	159.054337	76.844482	-28.441252
7068.325510	157.008759	76.201584	-26.337219
7068.328422	155.430725	75.792465	-26.103437
7068.331755	153.560486	74.915787	-25.460539
7068.335093	151.397995	74.331337	-24.233187
7068.338427	149.995300	73.045540	-22.129154
7068.341753	148.358826	72.519531	-20.901802
7068.345089	147.014587	71.876633	-20.083567
7068.348424	145.553467	71.058395	-18.797768
7068.351756	143.390976	69.889488	-18.797768
7068.355086	142.222076	69.772598	-17.044407
7068.358424	140.819382	69.246590	-17.511971
7068.361755	139.592041	68.136124	-16.167728
7068.365101	138.072449	67.610115	-15.407938
7068.368416	137.020447	66.967216	-14.940375
7068.371754	135.968414	66.558105	-14.122140
7068.375133	135.091736	66.382767	-13.713022
7068.378419	133.981277	66.032097	-12.894788
7068.381752	132.929260	65.622978	-12.134998
7068.385082	132.169464	65.155411	-12.134998
7068.388420	130.708344	64.512512	-10.790755
7068.391754	129.831665	64.570961	-10.264748
7068.395085	128.838089	63.752724	-10.615419
7068.398418	127.610741	63.635834	-10.323193
7068.401748	127.026283	63.694283	-10.030966
7068.405083	126.149605	63.109825	-9.212730
7068.408458	125.974266	62.934494	-8.452941
7068.411746	124.863808	62.759155	-9.037395
7068.415088	124.746910	62.700710	-7.868487
7068.418418	123.578011	62.057808	-8.511387
7068.422660	121.766197	61.414909	-7.225589
7068.425995	121.766197	61.590248	-6.641136
7068.429344	121.006416	61.064240	-5.998236
7068.432591	120.947968	61.531799	-6.641136
7068.435927	120.305069	61.239574	-6.290463
7068.439262	119.369942	60.772011	-5.647564
7068.442611	118.843933	60.304451	-5.296892
7068.445497	118.843933	60.070667	-6.115126
7068.448853	118.259476	60.830456	-6.115126
7068.452224	118.317924	60.421341	-5.238445
7068.455521	117.967255	59.661552	-4.887774
7068.458842	117.733475	59.544659	-5.413782
7068.461742	116.856796	59.661552	-4.478657
7068.465072	116.856796	59.252434	-4.127985
7068.468408	116.973679	59.018650	-4.653994
7068.471745	116.213890	59.836884	-3.952648
7068.475070	116.506119	59.778442	-3.777313
7068.478404	116.213890	59.603104	-3.835758
7068.481742	115.863220	59.252434	-3.894203
7068.485077	115.454102	59.719994	-4.127985
7068.488409	115.980103	60.070667	-4.420212
7068.491738	115.980103	59.719994	-4.478657
7068.495097	116.272339	60.129112	-4.478657
7068.498404	116.681450	60.187557	-4.946220
7068.501743	116.798340	59.836884	-4.069540
7068.505073	117.090576	59.661552	-4.887774
7068.508399	116.623009	60.538231	-5.530672
7068.511731	116.973679	60.362892	-4.887774
7068.515112	117.558136	60.538231	-4.829329
7068.518401	117.558136	60.538231	-5.063110
7068.521740	118.084145	60.655121	-5.238445
7068.525073	118.259476	61.473354	-5.238445
7068.528409	118.727043	61.298019	-5.881346
7068.531740	118.493263	61.824028	-6.524245
7068.535070	119.311493	62.174698	-5.764454
7068.538440	120.363510	62.233147	-6.582690
7068.541732	120.305069	62.700710	-7.108699
7068.545069	120.772629	63.226715	-7.400925
7068.548402	121.824646	63.460503	-7.693151
7068.551732	122.525993	64.395622	-7.751597
7068.555069	122.818214	64.220291	-8.043824
7068.559275	124.454681	65.447639	-8.511387
7068.562657	125.272919	65.973648	-8.745168
7068.565985	125.915817	66.207428	-9.388066
7068.569254	126.149605	67.025665	-10.089411
7068.572570	127.318512	67.551674	-10.790755
7068.575914	128.312073	67.902344	-11.550545
7068.578826	129.188751	68.428352	-11.608990
7068.582179	130.065445	69.071251	-11.316763
7068.585511	130.942108	69.129700	-12.427225
7068.588856	131.877243	70.064819	-13.187015
7068.592185	132.753937	70.883057	-13.596132
7068.595088	134.098175	71.058395	-13.946804
7068.598393	135.442413	72.519531	-15.817056
7068.601728	135.676193	72.519531	-15.057266
7068.605067	137.254211	73.220871	-16.167728
7068.608393	138.832245	74.623558	-15.875501
7068.611736	140.118042	74.682007	-17.511971
7068.615065	141.053162	75.149567	-18.271761
7068.618396	143.098755	76.026253	-19.089996
7068.621726	144.150772	76.727592	-20.200457
7068.625100	146.021027	76.961372	-20.551128
7068.628394	147.423706	78.305618	-21.369364
7068.631731	149.469299	79.416077	-23.122725
7068.635059	150.930420	79.942085	-24.583858
7068.638396	152.450012	81.052551	-24.408524
7068.641721	154.261826	81.987671	-26.278774
7068.645061	155.956726	83.273468	-27.155455
7068.648395	157.943878	83.916374	-29.201042
7068.651726	160.340149	85.202171	-30.428394
7068.655063	161.392151	85.786621	-31.538857
7068.658393	163.729950	87.715324	-34.168896
7068.661723	165.483337	88.475105	-34.461124
7068.665068	167.879578	90.286919	-36.448265
7068.668420	170.100494	91.631157	-37.792507
7068.671721	172.905884	92.507843	-39.078308
7068.675067	174.893036	94.494980	-41.299229
7068.678389	177.464630	96.131454	-43.227928
7068.681720	179.802429	97.241913	-45.039734
7068.685051	183.192261	99.755066	-47.202209
7068.688393	185.413177	101.216202	-48.897125
7068.693077	190.439484	103.963135	-53.280525
7068.695937	193.011078	105.307373	-55.209225
7068.699337	195.524231	107.177620	-57.313255
7068.702698	198.972504	108.755653	-59.826408
7068.705925	201.777893	110.918121	-62.924007
7068.709235	204.524811	112.262367	-65.320267
7068.712191	208.206879	114.483292	-68.359428
7068.715479	211.070709	116.470436	-70.814133
7068.718810	213.992981	117.873123	-73.794846
7068.722141	217.499695	119.977158	-77.535355
7068.725476	220.363525	121.788963	-80.106949
7068.728378	223.753326	123.776108	-83.672104
7068.731715	227.727631	125.938583	-87.120384
