time (s)	det(V)
10177.243814	-1.617765	
10177.245313	-1.617764	
10177.246993	-1.617708	
10177.248486	-1.617764	
10177.250143	-1.617704	
10177.251658	-1.617797	
10177.253291	-1.617692	
10177.254839	-1.617680	
10177.256426	-1.617700	
10177.258031	-1.617805	
10177.259578	-1.617583	
10177.261216	-1.617753	
10177.262757	-1.617660	
10177.264440	-1.617732	
10177.266035	-1.617539	
10177.267703	-1.617571	
10177.269293	-1.617011	
10177.270951	-1.572837	
10177.272520	-1.514712	
10177.274230	-1.455971	
10177.275779	-1.405303	
10177.277483	-1.354405	
10177.279012	-1.302714	
10177.280732	-1.250877	
10177.282250	-1.212834	
10177.283987	-1.159164	
10177.285479	-1.109697	
10177.287253	-1.061232	
10177.288733	-1.017231	
10177.290523	-0.969555	
10177.292004	-0.929486	
10177.293772	-0.891922	
10177.295253	-0.853153	
10177.297000	-0.812677	
10177.298500	-0.779616	
10177.300256	-0.741279	
10177.301779	-0.703420	
10177.303529	-0.668418	
10177.305048	-0.638951	
10177.306758	-0.604167	
10177.308294	-0.574486	
10177.310009	-0.549752	
10177.311563	-0.525441	
10177.313260	-0.496345	
10177.314824	-0.474205	
10177.316486	-0.451562	
10177.318070	-0.425225	
10177.319723	-0.404144	
10177.321306	-0.388817	
10177.322929	-0.366125	
10177.324539	-0.345669	
10177.326168	-0.330930	
10177.327790	-0.316327	
10177.329387	-0.297595	
10177.331068	-0.282993	
10177.332654	-0.270726	
10177.334312	-0.251314	
10177.335892	-0.234411	
10177.337586	-0.221746	
10177.339146	-0.209887	
10177.340841	-0.194531	
10177.342381	-0.186059	
10177.344092	-0.178248	
10177.345631	-0.167481	
10177.347350	-0.157325	
10177.348857	-0.151375	
10177.350621	-0.140032	
10177.352113	-0.128156	
10177.353903	-0.119906	
10177.355387	-0.112277	
10177.357166	-0.101622	
10177.358663	-0.095934	
10177.360157	-0.094032	
10177.361741	-0.088562	
10177.363280	-0.080719	
10177.364886	-0.079091	
10177.366366	-0.073862	
10177.367999	-0.064791	
10177.369491	-0.057761	
10177.371140	-0.054647	
10177.372620	-0.048835	
10177.374265	-0.044129	
10177.375742	-0.041430	
10177.377376	-0.041672	
10177.378853	-0.038087	
10177.380556	-0.034183	
10177.382045	-0.033096	
10177.383759	-0.029035	
10177.385257	-0.021905	
10177.386933	-0.020395	
10177.388440	-0.017587	
10177.390090	-0.013055	
10177.391623	-0.010634	
10177.393255	-0.013284	
10177.394816	-0.011262	
10177.396409	-0.008757	
10177.398009	-0.008918	
10177.399670	-0.007887	
10177.401279	-0.003157	
10177.402899	0.002341	
10177.404514	0.000762	
10177.406127	0.003505	
10177.407782	0.007518	
10177.409388	0.005334	
10177.411028	0.003912	
10177.412613	0.007220	
10177.414299	0.005399	
10177.415866	0.004448	
10177.417552	0.008283	
10177.419096	0.012859	
10177.420820	0.012231	
10177.422373	0.015272	
10177.424077	0.017395	
10177.425630	0.015550	
10177.427355	0.011506	
10177.428847	0.013729	
10177.430611	0.013898	
10177.432096	0.011381	
10177.433879	0.013818	
10177.435369	0.020082	
10177.437134	0.017403	
10177.438622	0.018173	
10177.440427	0.020489	
10177.441906	0.020904	
10177.443698	0.015127	
10177.445183	0.015816	
10177.446914	0.016755	
10177.448424	0.013024	
10177.450150	0.013580	
10177.451672	0.018668	
10177.453390	0.020038	
10177.454936	0.019462	
10177.456639	0.021585	
10177.458195	0.021790	
10177.459880	0.017435	
10177.461439	0.016718	
10177.463115	0.017472	
10177.464703	0.015079	
10177.466353	0.014140	
10177.467951	0.017423	
10177.469602	0.020163	
10177.471194	0.018318	
10177.472834	0.019812	
10177.474450	0.022060	
10177.476060	0.018471	
10177.477731	0.015675	
10177.479319	0.016102	
10177.480987	0.015103	
10177.482559	0.013862	
10177.484252	0.015175	
10177.485818	0.020046	
10177.487508	0.018833	
10177.489055	0.018797	
10177.490776	0.021363	
10177.492263	0.019405	
10177.493830	0.015043	
10177.495309	0.016199	
10177.496919	0.015864	
10177.498435	0.013210	
10177.500002	0.014019	
10177.501560	0.018213	
10177.503073	0.019667	
10177.504720	0.017754	
10177.506210	0.019679	
10177.507842	0.021484	
10177.509367	0.017117	
10177.510995	0.013101	
10177.512469	0.015538	
10177.514199	0.013681	
10177.515669	0.011538	
10177.517368	0.014245	
10177.518847	0.018269	
10177.520555	0.018044	
10177.522036	0.016062	
10177.523753	0.019164	
10177.525242	0.020416	
10177.526916	0.013681	
10177.528426	0.013560	
10177.530089	0.014297	
10177.531618	0.012336	
10177.533312	0.011747	
10177.534856	0.016130	
10177.536538	0.016960	
10177.538097	0.015776	
10177.539761	0.018362	
10177.541349	0.018124	
10177.543006	0.015534	
10177.544609	0.011328	
10177.546269	0.014346	
10177.547871	0.011913	
10177.549503	0.008646	
10177.551114	0.012718	
10177.552717	0.017355	
10177.554392	0.015119	
10177.555971	0.015409	
10177.557637	0.018394	
10177.559231	0.014293	
10177.560899	0.010668	
10177.562471	0.012517	
10177.564174	0.010059	
10177.565733	0.007357	
10177.567436	0.010507	
10177.568988	0.015163	
10177.570701	0.014116	
10177.572207	0.013004	
10177.573968	0.016722	
10177.575445	0.014048	
10177.577223	0.007808	
10177.578712	0.008384	
10177.580487	0.008694	
10177.581964	0.006100	
10177.583735	0.006728	
10177.585208	0.011647	
10177.586967	0.012303	
10177.588473	0.010982	
10177.590204	0.014575	
10177.591722	0.013512	
10177.593446	0.007739	
10177.594984	0.005262	
10177.596671	0.007912	
10177.598206	0.005399	
10177.599892	0.003530	
10177.601453	0.009121	
10177.603124	0.009794	
10177.604702	0.008589	
10177.606372	0.010664	
10177.607964	0.012315	
10177.609605	0.007610	
10177.611209	0.005818	
10177.612837	0.007284	
10177.614458	0.003981	
10177.616064	0.001270	
10177.617732	0.005113	
10177.619312	0.008976	
10177.620982	0.006773	
10177.622548	0.008227	
10177.624242	0.011324	
10177.625719	0.006366	
10177.627274	0.002865	
10177.628767	0.003485	
10177.630404	0.003715	
10177.631909	0.000593	
10177.633493	0.001427	
10177.635044	0.007107	
10177.636576	0.008452	
10177.638163	0.005979	
10177.639654	0.007659	
10177.641300	0.008960	
10177.642788	0.004480	
10177.644419	0.001568	
10177.645896	0.003502	
10177.647600	0.001701	
10177.649075	-0.001042	
10177.650787	0.003062	
10177.652273	0.006752	
10177.653998	0.004488	
10177.655487	0.005242	
10177.657192	0.008102	
10177.658677	0.005544	
10177.660375	0.000960	
10177.661857	0.001741	
10177.663589	0.002422	
10177.665086	-0.000986	
10177.666789	0.000605	
10177.668314	0.004541	
10177.670054	0.004658	
10177.671596	0.002784	
10177.673291	0.006116	
10177.674832	0.006442	
10177.676514	0.001471	
10177.678072	0.001463	
10177.679732	0.001858	
10177.681314	-0.001542	
10177.682951	-0.002485	
10177.684563	0.002394	
10177.686190	0.004295	
10177.687809	0.002410	
10177.689427	0.005214	
10177.691071	0.007119	
10177.692667	0.002668	
10177.694312	-0.001896	
10177.695888	0.001431	
10177.697568	-0.001127	
10177.699114	-0.002936	
10177.700791	0.000400	
10177.702335	0.002583	
10177.704022	0.001552	
10177.705527	0.001822	
10177.707249	0.005818	
10177.708734	0.002241	
10177.710502	-0.001872	
10177.711987	-0.001341	
10177.713769	-0.001832	
10177.715250	-0.003931	
10177.717003	-0.003085	
10177.718487	0.001129	
10177.720239	0.000291	
10177.721747	0.000251	
10177.723491	0.003135	
10177.725009	0.001149	
10177.726715	-0.001369	
10177.728248	-0.003391	
10177.729942	-0.002658	
10177.731480	-0.005663	
10177.733137	-0.006436	
10177.734700	-0.001671	
10177.736335	-0.001103	
10177.737933	-0.001425	
10177.739551	-0.000555	
10177.741173	0.000786	
10177.742810	-0.002964	
10177.744438	-0.005035	
10177.746063	-0.003387	
10177.747722	-0.006251	
10177.749309	-0.007520	
10177.750978	-0.004898	
10177.752549	-0.002186	
10177.754242	-0.003198	
10177.755805	-0.001312	
10177.757484	-0.000410	
10177.758977	-0.001896	
10177.760523	-0.007520	
10177.762027	-0.006038	
10177.763645	-0.006614	
10177.765163	-0.009345	
10177.766722	-0.008358	
10177.768266	-0.003749	
10177.769783	-0.003903	
10177.771396	-0.005002	
10177.772897	-0.002561	
10177.774526	-0.001566	
10177.776061	-0.005615	
10177.777729	-0.008571	
10177.779215	-0.006078	
10177.780945	-0.007484	
10177.782416	-0.010465	
10177.784150	-0.007375	
10177.785619	-0.004535	
10177.787333	-0.005329	
10177.788814	-0.004571	
10177.790516	-0.002609	
10177.792008	-0.004462	
10177.793703	-0.008708	
10177.795182	-0.008036	
10177.796935	-0.008354	
10177.798445	-0.011222	
10177.800189	-0.010106	
10177.801702	-0.006505	
10177.803424	-0.005921	
10177.804947	-0.006614	
10177.806660	-0.004716	
10177.808202	-0.003484	
10177.809869	-0.008229	
10177.811425	-0.010316	
10177.813086	-0.007983	
10177.814674	-0.010847	
10177.816327	-0.011182	
10177.817914	-0.008463	
10177.819545	-0.006424	
10177.821150	-0.007862	
10177.822766	-0.005397	
10177.824401	-0.004048	
10177.826002	-0.007528	
10177.827676	-0.010259	
10177.829261	-0.009023	
10177.830918	-0.010682	
10177.832503	-0.013329	
10177.834179	-0.011057	
10177.835754	-0.006819	
10177.837464	-0.008604	
10177.838995	-0.007069	
10177.840704	-0.005180	
10177.842223	-0.007443	
10177.843953	-0.011883	
10177.845440	-0.011440	
10177.847196	-0.011685	
10177.848692	-0.013478	
10177.850470	-0.013389	
10177.851944	-0.008902	
10177.853728	-0.009562	
10177.855208	-0.010219	
10177.856978	-0.007597	
10177.858469	-0.008410	
10177.860215	-0.013232	
10177.861722	-0.012729	
10177.863474	-0.013611	
10177.864996	-0.014545	
10177.866722	-0.015891	
10177.868250	-0.012016	
10177.869967	-0.010944	
10177.871509	-0.011403	
10177.873203	-0.009635	
10177.874760	-0.009937	
10177.876457	-0.013510	
10177.878035	-0.016406	
10177.879696	-0.014960	
10177.881280	-0.016133	
10177.882931	-0.018179	
10177.884521	-0.014783	
10177.886150	-0.012374	
10177.887763	-0.013260	
10177.889287	-0.012145	
10177.890914	-0.010038	
10177.892386	-0.012588	
10177.894038	-0.015947	
10177.895521	-0.016120	
10177.897148	-0.015915	
10177.898625	-0.018255	
10177.900244	-0.017240	
10177.901746	-0.012817	
10177.903313	-0.012560	
10177.904889	-0.013824	
10177.906387	-0.009494	
10177.908012	-0.009868	
10177.909574	-0.013015	
10177.911192	-0.015951	
10177.912719	-0.013546	
10177.914381	-0.015182	
10177.915856	-0.016366	
10177.917555	-0.012563	
10177.919030	-0.008930	
10177.920742	-0.011013	
10177.922230	-0.009405	
10177.923960	-0.006058	
10177.925449	-0.007496	
10177.927158	-0.011524	
10177.928646	-0.009313	
10177.930438	-0.008813	
10177.931918	-0.010582	
10177.933675	-0.008519	
10177.935161	-0.003117	
10177.936918	-0.002400	
10177.938423	-0.001824	
10177.940172	0.003070	
10177.941689	0.004154	
10177.943419	0.000460	
10177.944945	0.001544	
10177.946641	0.004287	
10177.948186	0.004726	
10177.949865	0.005552	
10177.951414	0.012315	
10177.953086	0.017621	
10177.954678	0.017073	
10177.956326	0.021560	
10177.957910	0.026245	
10177.959555	0.024380	
10177.961145	0.025947	
10177.962785	0.029919	
10177.964410	0.030237	
10177.965996	0.032844	
10177.967683	0.041891	
10177.969274	0.051841	
10177.970935	0.053904	
10177.972526	0.059656	
10177.974206	0.065018	
10177.975789	0.065989	
10177.977494	0.069300	
10177.979044	0.074537	
10177.980750	0.077224	
10177.982294	0.082835	
10177.984000	0.090416	
10177.985507	0.100475	
10177.987249	0.105039	
10177.988737	0.113636	
10177.990520	0.126438	
10177.991995	0.131131	
10177.993785	0.134728	
10177.995269	0.139634	
10177.997059	0.152009	
10177.998535	0.156759	
10178.000278	0.168759	
10178.001780	0.181348	
10178.003534	0.194710	
10178.005051	0.203584	
10178.006800	0.219021	
10178.008320	0.229599	
10178.010027	0.236669	
10178.011559	0.250345	
10178.013273	0.265177	
10178.014831	0.277887	
10178.016542	0.292570	
10178.018112	0.312905	
10178.019794	0.333614	
10178.021393	0.348656	
10178.022885	0.368121	
10178.024518	0.392436	
10178.026041	0.405008	
10178.027680	0.420654	
10178.029171	0.438528	
10178.030817	0.460486	
10178.032287	0.480048	
10178.033939	0.508621	
10178.035431	0.537439	
10178.037063	0.564578	
10178.038547	0.592140	
10178.040154	0.623093	
10178.041679	0.652569	
10178.043228	0.680735	
10178.044804	0.714536	
10178.046403	0.748056	
10178.048004	0.783997	
10178.049561	0.819091	
10178.051174	0.865824	
10178.052705	0.905902	
10178.054371	0.949492	
10178.055846	0.993932	
10178.057561	1.040991	
10178.059040	1.081363	
10178.060774	1.129139	
10178.062323	1.181648	
10178.064049	1.232884	
10178.065589	1.276426	
10178.067331	1.338680	
10178.068838	1.394778	
10178.070595	1.454994	
10178.072084	1.509424	
10178.073842	1.571880	
10178.075330	1.617746	
10178.077137	1.636570	
10178.078617	1.636526	
10178.080407	1.636550	
10178.081890	1.636708	
10178.083669	1.636683	
10178.085142	1.636570	
10178.086908	1.636611	
10178.088408	1.636482	
10178.090152	1.636703	
10178.091674	1.636546	
10178.093417	1.636651	
10178.094944	1.636582	
10178.096654	1.636599	
10178.098189	1.636571	
10178.099885	1.636599	
10178.101445	1.636679	
10178.103125	1.636635	
10178.104701	1.636562	
10178.106368	1.636804	
10178.107949	1.636651	
10178.109607	1.636772	
10178.111193	1.636639	
10178.112834	1.636873	
10178.114435	1.636502	
10178.116059	1.636764	
10178.117738	1.636615	
10178.119316	1.636647	
10178.120989	1.636486	
10178.122585	1.636691	
10178.124253	1.636732	
10178.125851	1.636744	
10178.127531	1.636574	
10178.129099	1.636724	
10178.130819	1.636567	
10178.132361	1.636768	
10178.134059	1.636579	
10178.135623	1.636671	
10178.137311	1.636639	
10178.138845	1.636566	
10178.140574	1.636546	
10178.142063	1.636599	
10178.143849	1.636615	
10178.145325	1.636570	
10178.147115	1.615019	
10178.148595	1.521582	
10178.150367	1.437112	
10178.151849	1.357315	
10178.153597	1.267681	
10178.155096	1.188110	
10178.156858	1.097569	
10178.158383	1.007460	
10178.159871	0.916351	
10178.161482	0.822093	
10178.162971	0.732857	
10178.164642	0.637003	
10178.166131	0.544340	
10178.167757	0.454295	
10178.169293	0.372572	
10178.170957	0.272037	
10178.172439	0.184627	
10178.174097	0.087855	
10178.175569	-0.003826	
10178.177190	-0.106004	
10178.178673	-0.193745	
10178.180383	-0.292318	
10178.181856	-0.380619	
10178.183536	-0.470309	
10178.185045	-0.553543	
10178.186695	-0.649143	
10178.188233	-0.740598	
10178.189844	-0.827956	
10178.191421	-0.917812	
10178.193020	-1.013734	
10178.194596	-1.104605	
10178.196252	-1.191451	
10178.197837	-1.272594	
10178.199475	-1.360311	
10178.201097	-1.440881	
10178.202701	-1.519425	
10178.204373	-1.596757	
10178.205952	-1.617515	
10178.207610	-1.617732	
10178.209192	-1.617527	
10178.210863	-1.617829	
10178.212440	-1.617628	
10178.214123	-1.617704	
10178.215694	-1.617696	
10178.217404	-1.617740	
10178.218954	-1.617668	
10178.220669	-1.617740	
10178.222207	-1.617664	
10178.223925	-1.617632	
10178.225426	-1.617652	
10178.227195	-1.617769	
10178.228683	-1.617736	
10178.230471	-1.617712	
10178.231951	-1.617684	
10178.233732	-1.617668	
10178.235218	-1.617744	
10178.236988	-1.617724	
10178.238474	-1.617724	
10178.240235	-1.617644	
10178.241744	-1.617728	
10178.243483	-1.617720	
10178.244989	-1.617716	
10178.246718	-1.617612	
10178.248240	-1.617660	
10178.249952	-1.617410	
10178.251493	-1.617652	
10178.253196	-1.617716	
10178.254753	-1.617760	
10178.256429	-1.617620	
10178.258010	-1.617821	
10178.259685	-1.617599	
10178.261260	-1.617797	
10178.262907	-1.617579	
10178.264497	-1.617761	
10178.266143	-1.617495	
10178.267762	-1.617692	
10178.269380	-1.617579	
10178.271033	-1.617744	
10178.272626	-1.617559	
10178.274270	-1.613627	
10178.275870	-1.563386	
10178.277531	-1.507622	
10178.279106	-1.455327	
10178.280813	-1.403035	
10178.282365	-1.352685	
10178.284082	-1.294290	
10178.285627	-1.243574	
10178.287327	-1.200575	
10178.288808	-1.155849	
10178.290358	-1.107562	
10178.291872	-1.066014	
10178.293449	-1.027672	
10178.294982	-0.985806	
10178.296527	-0.945792	
10178.298130	-0.907181	
10178.299621	-0.869790	
10178.301302	-0.827327	
10178.302785	-0.790497	
10178.304414	-0.756220	
10178.305931	-0.723586	
10178.307559	-0.687742	
10178.309042	-0.662775	
10178.310691	-0.635346	
10178.312183	-0.605983	
10178.313901	-0.576798	
10178.315387	-0.552971	
10178.317099	-0.524889	
10178.318580	-0.497424	
10178.320276	-0.473025	
10178.321762	-0.453089	
10178.323433	-0.428363	
10178.324951	-0.408857	
10178.326607	-0.398702	
10178.328161	-0.380808	
10178.329873	-0.360477	
10178.331437	-0.346833	
10178.333142	-0.329500	
10178.334698	-0.310107	
10178.336373	-0.293188	
10178.337956	-0.279190	
10178.339614	-0.263500	
10178.341198	-0.249477	
10178.342839	-0.240417	
10178.344460	-0.232139	
10178.346083	-0.217379	
10178.347713	-0.209750	
10178.349335	-0.200448	
10178.350989	-0.186966	
10178.352593	-0.173491	
10178.354264	-0.167050	
10178.355834	-0.154816	
10178.357529	-0.144785	
10178.359098	-0.139995	
10178.360798	-0.136056	
10178.362362	-0.127459	
10178.364030	-0.123036	
10178.365567	-0.118847	
10178.367283	-0.108276	
10178.368800	-0.098451	
10178.370574	-0.093613	
10178.372050	-0.086902	
10178.373821	-0.079119	
10178.375307	-0.076300	
10178.377083	-0.075659	
10178.378560	-0.070797	
10178.380328	-0.066007	
10178.381813	-0.063872	
10178.383596	-0.058950	
10178.385081	-0.051404	
10178.386841	-0.047598	
10178.388346	-0.044987	
10178.390078	-0.039211	
10178.391597	-0.035883	
10178.393314	-0.037261	
10178.394852	-0.034695	
10178.396579	-0.031198	
10178.398131	-0.031754	
10178.399818	-0.029507	
10178.401376	-0.022707	
10178.403058	-0.018046	
10178.404634	-0.018356	
10178.406298	-0.013454	
10178.407883	-0.012016	
10178.409516	-0.012910	
10178.411149	-0.013099	
10178.412782	-0.010348	
10178.414394	-0.010445	
10178.416022	-0.011363	
10178.417674	-0.005429	
10178.419262	-0.001220	
10178.420935	-0.001610	
10178.422405	0.000428	
10178.423974	0.002941	
10178.425456	0.004186	
10178.427075	-0.000233	
10178.428555	0.000899	
10178.430169	0.002104	
10178.431677	0.000283	
10178.433232	0.001286	
10178.434803	0.007953	
10178.436295	0.009898	
10178.437936	0.010329	
10178.439433	0.010241	
10178.441069	0.012940	
10178.442577	0.009181	
10178.444275	0.007276	
10178.445747	0.009028	
10178.447471	0.006567	
10178.448951	0.006225	
10178.450654	0.010354	
10178.452138	0.014539	
10178.453857	0.013818	
10178.455355	0.013178	
10178.457078	0.016400	
10178.458555	0.015043	
10178.460339	0.011256	
10178.461815	0.012267	
10178.463584	0.010865	
10178.465080	0.008311	
10178.466823	0.009681	
10178.468333	0.014765	
10178.470070	0.015470	
10178.471593	0.013512	
10178.473298	0.016581	
10178.474825	0.017250	
10178.476521	0.011590	
10178.478076	0.011212	
10178.479747	0.012908	
10178.481303	0.009999	
10178.482972	0.008714	
10178.484567	0.014632	
10178.486213	0.016851	
10178.487826	0.014547	
10178.489459	0.015272	
10178.491071	0.016847	
10178.492701	0.014301	
10178.494363	0.009395	
10178.495938	0.012662	
10178.497612	0.011212	
10178.499185	0.007949	
10178.500857	0.012477	
10178.502425	0.016114	
10178.504103	0.014720	
10178.505666	0.016086	
10178.507391	0.017524	
10178.508937	0.014648	
10178.510657	0.009749	
10178.512187	0.013198	
10178.513915	0.011006	
10178.515428	0.008666	
10178.517177	0.012259	
10178.518658	0.016082	
10178.520428	0.013254	
10178.521916	0.013592	
10178.523699	0.017899	
10178.525174	0.015131	
10178.526977	0.010426	
10178.528455	0.010873	
10178.530191	0.010692	
10178.531693	0.007957	
10178.533442	0.009391	
10178.534969	0.015486	
10178.536709	0.014446	
10178.538237	0.014205	
10178.539959	0.015143	
10178.541491	0.016042	
10178.543185	0.011461	
10178.544731	0.010221	
10178.546405	0.011727	
10178.547975	0.008670	
10178.549626	0.007421	
10178.551221	0.013967	
10178.552880	0.014567	
10178.554466	0.012380	
10178.556105	0.014881	
