time (s)	magX	magY	magZ
8811.058576	-66.369377	-313.628876	-916.693787
8811.061884	-45.738167	-324.791931	-906.115173
8811.065219	-25.457626	-335.078339	-892.614258
8811.068544	-5.644657	-345.247833	-876.483337
8811.071875	13.408531	-353.254822	-858.949768
8811.075206	31.701925	-359.917603	-839.955078
8811.078546	49.060196	-366.521912	-819.148437
8811.081879	66.944473	-372.015778	-796.705444
8811.085219	82.841614	-374.938080	-773.035034
8811.088550	97.803619	-378.269440	-748.254272
8811.091875	111.888947	-379.263031	-723.122742
8811.095213	124.922264	-380.256561	-697.056091
8811.098545	137.078888	-380.022827	-669.353027
8811.101906	148.183517	-379.029236	-642.643494
8811.105211	159.463470	-377.217438	-615.291077
8811.108548	167.879608	-374.178284	-587.997131
8811.111874	176.354187	-370.145538	-560.527771
8811.115209	184.828766	-365.937500	-534.227356
8811.118537	190.731750	-360.502075	-507.868500
8811.121879	196.342499	-355.183533	-482.035645
8811.125208	201.661011	-349.222107	-456.787262
8811.128542	205.810638	-342.617798	-432.883118
8811.131880	208.674438	-335.662781	-408.336060
8811.135206	211.070709	-328.473999	-384.782593
8811.138536	213.291656	-320.934540	-362.398041
8811.141875	214.226776	-313.044434	-340.831696
8811.145251	214.460541	-304.978973	-320.142029
8811.148552	214.577423	-296.562866	-300.971954
8811.153149	212.122742	-281.016388	-263.450012
8811.156054	209.668030	-273.126251	-246.091766
8811.159389	207.622437	-264.417908	-230.779068
8811.162751	205.343079	-257.112244	-216.518402
8811.166089	202.245483	-248.871414	-201.030396
8811.169467	198.855652	-242.267075	-187.529510
8811.172315	194.939789	-234.610733	-174.087082
8811.175637	191.257751	-227.363541	-161.871994
8811.178955	187.634125	-220.525436	-150.475159
8811.182311	183.484497	-213.687317	-139.487427
8811.185633	179.217987	-207.550552	-129.843948
8811.188563	174.951492	-201.589127	-119.966690
8811.191865	169.808289	-194.867920	-111.901230
8811.195207	165.834015	-189.257172	-104.303329
8811.198530	161.742844	-183.354187	-96.588547
8811.201869	157.476318	-177.801865	-89.341324
8811.205198	153.268265	-172.717117	-82.853882
8811.208532	149.527756	-168.099945	-75.080658
8811.211868	144.793686	-163.365860	-70.463470
8811.215203	141.462311	-158.047348	-65.261841
8811.218540	137.780243	-153.547043	-60.001755
8811.221860	134.273529	-148.812973	-55.033901
8811.225199	130.649902	-144.195786	-50.592052
8811.228537	126.909409	-140.338394	-45.857979
8811.231900	123.694916	-135.896545	-42.059029
8811.235201	120.246635	-131.162476	-37.967857
8811.238537	117.382820	-127.421974	-34.811806
8811.241866	113.759201	-123.798363	-30.720633
8811.245197	110.661606	-120.233192	-27.623028
8811.248524	108.323792	-116.434258	-24.583870
8811.251859	105.167732	-112.810646	-21.194040
8811.255192	102.596138	-109.362373	-17.745764
8811.258529	99.556976	-105.329643	-14.823496
8811.261860	97.219170	-102.115135	-13.420808
8811.265188	94.472237	-98.725319	-10.440095
8811.268530	92.601982	-95.803040	-8.569843
8811.271864	89.796608	-92.588547	-6.699593
8811.275217	88.101692	-89.549393	-4.595558
8811.278524	85.530098	-86.393341	-2.783754
8811.282793	81.088249	-81.016365	0.430740
8811.286108	79.393333	-78.620110	1.950319
8811.289380	77.464638	-75.756279	2.710110
8811.292703	75.535942	-73.243134	4.229689
8811.296040	73.490356	-71.255997	5.164814
8811.299412	71.853882	-69.736412	5.457041
8811.302278	69.574516	-67.164818	7.210402
8811.305639	67.996490	-65.528351	7.736410
8811.308966	67.061363	-63.774994	8.203972
8811.312303	65.249557	-62.196960	9.139097
8811.315620	63.729980	-60.560493	9.489769
8811.318522	62.561073	-59.391586	10.658680
8811.321854	60.457039	-58.105789	10.950905
8811.325208	59.463470	-56.644653	10.600235
8811.328520	58.236115	-55.125076	11.535358
8811.331850	57.067207	-53.605499	12.061367
8811.335183	55.606075	-52.904152	12.996494
8811.338523	54.437168	-51.443024	12.178257
8811.341853	53.268261	-50.683228	13.873173
8811.345189	51.222675	-49.163651	12.704266
8811.348520	50.404438	-48.228523	13.580944
8811.351849	49.644650	-47.585625	12.528931
8811.355188	48.534187	-46.358276	13.697838
8811.358521	47.657509	-45.832268	13.639393
8811.361854	46.079483	-44.780251	13.931618
8811.365181	45.611919	-43.494453	14.749851
8811.368544	44.443012	-43.085335	14.165398
8811.371845	43.683224	-41.741089	14.048508
8811.375240	43.274105	-40.981300	14.574516
8811.378519	41.929863	-40.455292	14.632961
8811.381861	41.228519	-39.111046	14.691406
8811.385188	40.936291	-38.935715	15.042080
8811.388516	39.942719	-37.591469	15.509644
8811.391849	39.533604	-37.065468	15.217415
8811.395185	38.598480	-36.188782	15.275860
8811.398509	38.247807	-35.312103	15.275860
8811.401849	37.721798	-34.376976	15.217415
8811.405181	37.429573	-34.435417	15.509644
8811.408515	36.669781	-33.208069	15.158970
8811.412734	35.091759	-31.922266	16.094097
8811.416072	34.741085	-30.753359	15.801868
8811.419442	33.805962	-30.344244	15.042080
8811.422777	33.922852	-30.110464	15.275860
8811.426036	33.163063	-29.526011	15.860313
8811.429358	32.695496	-28.590887	15.392750
8811.432269	32.286377	-27.597311	15.918758
8811.435606	32.169487	-27.480421	16.035648
8811.438928	31.643480	-27.421980	15.509644
8811.442263	31.643480	-27.188196	15.100525
8811.445619	31.351254	-26.077734	15.100525
8811.448541	30.708355	-26.194624	15.158970
8811.451843	30.825245	-25.843950	14.574516
8811.455177	29.597893	-25.668619	14.983635
8811.458532	29.539448	-24.791937	14.749851
8811.461836	29.364113	-24.791937	14.808296
8811.465180	29.130331	-25.376390	15.334305
8811.468503	28.896549	-25.142607	15.334305
8811.471838	28.721214	-24.324373	14.866745
8811.475173	28.662767	-24.558153	15.509644
8811.478508	28.195204	-24.090593	14.925190
8811.481836	28.136759	-24.032148	14.691406
8811.485167	27.844532	-24.207483	15.977203
8811.488504	27.376968	-23.973700	15.509644
8811.491872	27.084743	-23.623030	14.866745
8811.495167	27.260078	-23.038576	15.334305
8811.498504	27.084743	-23.097017	15.042080
8811.501837	26.734070	-22.980127	14.925190
8811.505170	26.558735	-22.980127	15.334305
8811.508499	26.441843	-22.746347	14.457626
8811.511841	27.084743	-22.161894	13.756283
8811.515167	26.383398	-22.045004	14.632961
8811.518496	25.565165	-22.395674	14.106953
8811.521848	26.149616	-22.278784	13.990063
8811.525181	26.324953	-22.512564	14.925190
8811.528497	26.383398	-21.869669	14.340736
8811.531838	26.266508	-21.343657	13.990063
8811.535201	25.974281	-22.103449	14.632961
8811.538500	26.324953	-21.694330	14.399181
8811.543131	25.915836	-21.343657	14.399181
8811.546056	25.974281	-21.285215	14.282291
8811.549373	26.441843	-21.109877	14.399181
8811.552775	25.506718	-21.635889	14.808296
8811.556084	25.565165	-20.642313	15.451199
8811.559400	25.682055	-21.051435	14.399181
8811.562257	25.798944	-20.583872	14.866745
8811.565591	25.798944	-20.642313	14.983635
8811.568927	26.032726	-20.817652	15.042080
8811.572269	25.682055	-20.583872	14.223846
8811.575592	25.798944	-20.350092	14.808296
8811.578538	25.623610	-20.934546	15.684978
8811.581824	25.915836	-21.109877	15.743423
8811.585165	25.798944	-21.577440	16.035648
8811.588496	26.383398	-21.402105	15.684978
8811.591829	26.675625	-21.285215	15.158970
8811.595158	26.792517	-21.577440	14.574516
8811.598493	26.734070	-22.045004	14.632961
8811.601880	26.792517	-21.811220	14.457626
8811.605166	27.318523	-22.278784	14.457626
8811.608494	27.376968	-22.337233	14.516071
8811.611827	27.493860	-22.337233	14.106953
8811.615158	27.552305	-22.804796	14.925190
8811.618493	27.610750	-22.863237	14.749851
8811.621864	27.610750	-23.097017	15.451199
8811.625157	27.727642	-23.155466	15.451199
8811.628496	27.961422	-23.739920	13.347164
8811.631827	28.195204	-23.447691	14.106953
8811.635152	28.253651	-24.558153	14.399181
8811.638489	28.779659	-24.382822	14.223846
8811.641819	28.954994	-24.616602	14.516071
8811.645149	29.714785	-25.142607	14.516071
8811.648487	29.597893	-24.967276	15.100525
8811.651828	29.890120	-25.434839	15.801868
8811.655151	30.240791	-25.434839	15.217415
8811.658486	30.533018	-25.902399	14.457626
8811.661821	31.468143	-26.019293	14.866745
8811.665240	31.468143	-26.253073	14.457626
8811.669786	32.403267	-26.603743	14.691406
8811.672685	32.520161	-26.837526	14.223846
8811.676000	32.987724	-27.305090	13.990063
8811.679367	32.929279	-27.188196	14.048508
8811.682691	33.689068	-28.415548	15.217415
8811.686091	34.156631	-28.415548	14.282291
8811.688936	34.215076	-28.590887	14.925190
8811.692253	35.267090	-29.292231	14.983635
8811.695584	35.442429	-29.058447	15.275860
8811.698904	35.968437	-29.993574	15.392750
8811.702250	36.026882	-30.636469	14.516071
8811.705582	36.845116	-30.753359	15.275860
8811.708506	37.312679	-32.272942	14.691406
8811.711813	38.130917	-32.272942	14.925190
8811.715152	38.832260	-33.091179	14.282291
8811.718476	39.358269	-33.558746	15.042080
8811.721817	40.410282	-34.143196	14.749851
8811.725144	40.819401	-35.487434	14.399181
8811.728478	41.637634	-35.604324	13.990063
8811.731812	42.455872	-35.896561	13.756283
8811.735143	43.040325	-37.299248	13.347164
8811.738511	43.566334	-37.883698	13.639393
8811.741817	44.618347	-39.052605	13.288719
8811.745145	45.670364	-39.987732	13.347164
8811.748481	46.663937	-40.455292	12.996494
8811.751837	47.131500	-42.091766	12.353596
8811.755144	48.241962	-42.909996	12.295147
8811.758482	49.410870	-44.078903	12.295147
8811.761812	49.878429	-45.189369	11.652248
8811.765138	52.157799	-45.890709	10.658680
8811.768479	52.917591	-47.176506	11.476913
8811.771811	54.437168	-48.111633	10.658680
8811.775142	55.489185	-49.222092	9.957336
8811.778479	57.184101	-50.274109	9.606661
8811.781811	59.112797	-51.559914	8.437754
8811.785137	60.047920	-53.196381	8.905315
8811.788474	61.158382	-54.189949	8.496199
8811.791807	62.561073	-55.358856	7.970190
8811.795167	64.197540	-57.287560	7.327291
8811.799391	66.944473	-58.982468	6.509058
8811.802738	68.697830	-60.560493	5.281706
8811.805990	70.626534	-61.904739	4.814142
8811.809324	72.146111	-63.248978	3.353010
8811.812654	74.133255	-64.827003	3.294563
8811.816008	76.120392	-66.229698	2.651665
8811.818916	78.107536	-67.749275	1.833429
8811.822249	80.094681	-70.087090	1.073641
8811.825598	82.432495	-71.197548	-0.270603
8811.828922	84.478081	-72.950905	-2.199301
8811.832243	87.225014	-75.113388	-3.192871
8811.835135	89.387489	-77.801880	-3.835770
8811.838491	91.549973	-79.789009	-5.355349
8811.841805	93.595551	-82.126823	-6.348921
8811.845136	96.400932	-84.230858	-9.037406
8811.848470	99.147865	-86.393341	-10.498540
8811.851800	102.187019	-89.958504	-11.725892
8811.855137	105.401520	-92.763885	-13.479253
8811.858467	107.914665	-95.569260	-16.050848
8811.861799	110.953827	-98.608421	-18.973116
8811.865132	114.402100	-101.881355	-21.836939
8811.868470	117.265923	-104.686729	-24.642315
8811.871805	121.123322	-108.135017	-27.623028
8811.875135	124.746925	-112.401527	-31.480423
8811.878465	128.019867	-116.200478	-35.513153
8811.881812	132.169495	-120.057869	-39.604324
8811.885133	136.143768	-123.506142	-43.520164
8811.888463	139.592041	-127.655769	-47.260666
8811.891799	144.150787	-132.039154	-52.696083
8811.895128	148.183517	-135.896545	-57.547050
8811.898467	152.683807	-140.455276	-63.157806
8811.901795	157.359436	-144.897141	-69.411453
8811.905125	162.151947	-150.274109	-76.249557
8811.908461	166.360016	-154.248398	-82.561661
8811.911798	171.444763	-158.865570	-90.393341
8811.915126	176.880188	-163.658096	-97.699005
8811.918457	181.614258	-168.509048	-106.056686
8811.921793	186.699005	-173.301575	-113.654587
8811.925159	191.842194	-178.620102	-123.239639
8811.929806	203.063690	-187.854477	-142.526596
8811.932755	207.622437	-192.413208	-153.105209
8811.936066	213.116302	-197.030396	-165.320282
8811.939399	218.493286	-201.822891	-175.781998
8811.942646	223.987122	-206.147858	-188.756866
8811.945981	228.838104	-211.057281	-202.842194
8811.948883	235.325531	-215.908234	-216.635300
8811.952218	240.585632	-221.051422	-231.363525
8811.955549	245.611908	-226.486862	-246.968430
8811.958886	250.813568	-232.039169	-263.508484
8811.962233	256.190521	-236.597885	-281.977203
8811.965119	260.983063	-242.150223	-299.861481
8811.968478	264.957336	-246.884262	-320.609589
8811.971803	269.516083	-252.027451	-341.007019
8811.975127	273.724152	-257.170654	-362.456482
8811.978459	276.237274	-262.606079	-386.009949
8811.981791	279.276459	-266.638824	-410.264771
8811.985116	281.205139	-271.489777	-435.630035
8811.988453	282.081818	-275.814728	-461.287567
8811.991785	282.724731	-280.081268	-487.763306
8811.995120	282.257172	-283.295746	-517.044373
8811.998456	281.088257	-287.386902	-545.682678
8812.001785	278.691986	-290.192322	-575.139099
8812.005119	274.834595	-291.711853	-604.829346
8812.008457	270.568085	-293.348358	-635.045593
8812.011786	265.074219	-294.400360	-665.787842
8812.015118	257.067200	-294.400360	-696.237915
8812.018461	248.943298	-293.640564	-725.635925
8812.021782	238.890717	-292.822327	-754.741699
8812.025117	227.318512	-289.900085	-784.081238
8812.028456	215.337219	-285.984222	-811.959717
8812.031782	201.953247	-281.367065	-838.026367
8812.035117	186.815887	-275.873169	-863.625366
8812.038448	171.094086	-268.918182	-887.821777
8812.041786	153.677368	-260.852722	-909.797180
8812.045115	135.617767	-251.150803	-931.012817
8812.048445	117.265923	-241.741074	-948.721802
8812.051785	97.745178	-230.285782	-964.794250
8812.055147	77.523087	-218.070724	-978.236694
8812.059756	34.215076	-191.478088	-999.160095
8812.062700	12.414959	-176.808289	-1005.647583
8812.065992	-9.677383	-160.618942	-1009.563477
8812.069380	-31.419060	-145.481583	-1010.323242
8812.072703	-53.862076	-129.175323	-1009.037415
8812.075565	-76.305092	-112.343071	-1004.595581
8812.078909	-98.806557	-95.043251	-998.984802
8812.082208	-119.846886	-77.801880	-989.575134
8812.085544	-141.705444	-61.320290	-979.113403
8812.088867	-161.459961	-44.312683	-965.554077
8812.092214	-181.740509	-27.305090	-950.066101
8812.095111	-200.969025	-11.641733	-933.350647
8812.098482	-218.853302	3.846287	-914.005310
8812.101776	-236.679138	18.925188	-893.432556
8812.105111	-254.037415	33.711861	-871.223267
8812.108442	-269.525421	47.037403	-847.436035
8812.111777	-284.136780	60.538277	-822.596741
8812.115108	-297.579224	72.110458	-797.173035
8812.118444	-310.670959	82.805954	-771.281738
8812.121776	-321.249573	92.800110	-744.981323
8812.125105	-331.009949	102.151367	-718.447144
8812.128497	-339.776764	110.684387	-690.510254
8812.131776	-346.965515	117.931618	-663.099365
8812.135102	-352.108734	124.711273	-636.331360
8812.138438	-357.193451	130.555817	-608.043884
8812.141795	-360.407959	135.582108	-582.561707
8812.145109	-363.154907	139.497955	-555.267700
8812.148442	-363.973114	143.530685	-528.791931
8812.151775	-364.440704	146.569839	-503.426666
8812.155103	-363.622437	148.615433	-478.704285
8812.158439	-362.102875	150.310349	-455.092346
8812.161772	-359.765076	152.180603	-432.883118
8812.165101	-356.141449	153.115723	-410.089417
8812.168436	-352.225616	153.407959	-388.756866
8812.171769	-348.601990	153.758621	-367.833466
8812.175099	-344.101715	153.583282	-349.072479
8812.178439	-339.016968	153.641739	-330.954407
8812.181765	-333.172424	152.589706	-313.946838
8812.185122	-326.918762	151.596146	-297.815918
8812.189356	-314.645233	148.966110	-266.196960
8812.192633	-308.683807	147.738754	-251.585617
8812.195957	-301.670380	145.751602	-239.195190
8812.199279	-295.708954	143.881348	-225.168320
8812.202644	-288.637054	141.718872	-213.187027
8812.205981	-281.974274	139.673294	-201.497955
8812.208894	-275.253082	137.510803	-190.568665
8812.212218	-269.466980	135.231445	-179.580948
8812.215553	-262.570435	132.776733	-169.177673
8812.218862	-256.316772	130.029800	-161.404434
8812.222210	-249.946228	127.575096	-151.001175
8812.225098	-243.809479	124.711273	-142.643478
8812.228465	-236.796051	121.905899	-134.694916
8812.231767	-231.185303	119.334305	-126.278793
8812.235107	-225.808319	116.470482	-119.440674
8812.238435	-219.437775	113.431320	-112.193451
8812.241761	-213.651672	110.742836	-105.589127
8812.245093	-208.450043	108.288132	-99.043259
8812.248427	-202.780823	105.307419	-93.549377
8812.251760	-196.994751	102.209816	-87.178848
8812.255096	-192.786682	99.521324	-82.561661
8812.258426	-187.877258	96.774399	-76.366455
8812.261755	-183.260101	94.144356	-71.106369
8812.265089	-177.649323	92.507889	-65.963181
8812.268427	-173.441254	89.118057	-62.047340
8812.271791	-168.999420	86.312683	-57.313267
8812.275092	-164.148468	84.091751	-53.864990
8812.278440	-160.291077	82.396843	-50.650497
8812.281763	-156.316772	79.825249	-47.026886
8812.285088	-151.816467	77.428986	-43.403275
8812.288426	-148.309784	75.324951	-40.188782
8812.291763	-144.277039	73.279366	-37.032730
8812.295091	-141.179443	71.759789	-34.110462
8812.298420	-137.497375	69.714203	-31.363531
8812.301759	-133.230865	68.428406	-29.727060
8812.305091	-130.776154	66.499702	-26.278786
8812.308421	-127.327888	65.213905	-25.226768
8812.311760	-123.879601	63.635887	-23.473408
8812.315115	-121.249565	62.642315	-20.200468
8812.319299	-115.814156	59.661598	-17.511982
8812.322700	-113.008781	58.843365	-16.343075
8812.326018	-110.261833	57.090004	-14.648161
8812.329284	-107.690239	56.680885	-13.245472
8812.332602	-105.644661	54.752190	-11.784337
8812.335934	-103.482170	54.226181	-10.849212
8812.338847	-101.378151	53.057274	-9.095851
8812.342177	-98.806557	52.472824	-8.745179
8812.345512	-96.936302	51.654587	-7.634718
8812.348861	-95.475166	50.602570	-6.991819
8812.352196	-93.254250	49.492107	-5.939802
8812.355085	-91.559334	49.316772	-4.537113
8812.358441	-90.039742	48.849209	-4.361778
8812.361780	-87.351265	47.388077	-4.069551
8812.365089	-85.422569	46.569839	-3.543543
8812.368420	-84.545891	46.277611	-2.842199
8812.371749	-82.792519	44.933372	-2.549973
8812.375086	-80.922264	44.232025	-2.433083
8812.378415	-80.104027	42.887783	-0.971947
8812.381751	-77.649330	42.361774	0.722967
8812.385079	-77.123314	42.069550	0.898304
8812.388420	-75.486855	41.017532	1.365866
8812.391751	-74.376396	40.433079	1.833429
8812.395081	-73.207489	39.497952	2.359438
8812.398415	-71.512566	38.913498	2.593218
8812.401774	-70.285217	38.036819	3.411455
8812.405080	-69.116310	37.393921	4.171244
8812.408413	-67.304504	36.517239	4.521915
8812.411747	-65.960266	36.166569	4.229689
8812.415080	-65.317360	35.757450	4.346581
8812.418414	-64.440681	34.588543	5.340151
8812.421741	-63.622444	34.354763	5.573933
8812.425074	-62.219749	33.770309	5.924604
8812.428478	-61.635307	33.945644	6.976620
8812.431758	-60.758629	33.478081	7.268847
8812.435081	-59.355942	33.010517	7.327291
8812.438411	-58.829926	32.718292	7.151957
8812.441743	-58.245468	31.841612	7.444183
8812.445118	-57.193459	31.607830	7.035065
8812.449709	-56.083000	30.614260	7.444183
8812.452649	-54.914085	29.679132	8.087082
8812.455962	-54.388084	29.796024	8.028637
8812.459330	-53.920525	29.503798	7.794855
8812.462701	-53.686737	29.445353	8.145527
8812.465586	-53.219177	29.328461	8.320864
8812.468868	-52.810051	28.627117	8.379309
8812.472168	-51.641144	29.036234	7.677963
8812.475506	-51.232033	28.919344	6.859730
8812.478824	-50.706017	29.036234	7.561073
8812.482162	-50.063126	27.984219	7.970190
8812.485073	-49.420227	27.867327	8.437754
8812.488410	-49.887787	28.451780	8.087082
8812.491734	-49.244896	28.276445	8.379309
8812.495073	-49.244896	27.165983	7.911745
8812.498403	-48.777328	26.932201	7.561073
8812.501738	-48.251320	27.282873	8.262417
8812.505073	-47.783760	27.107538	8.028637
8812.508405	-48.075989	26.815311	7.677963
8812.511737	-48.017540	26.815311	8.028637
8812.515067	-47.257744	26.172413	8.613091
8812.518436	-47.257744	26.055521	8.028637
