time (s)	magX	magY	magZ
9195.206793	142.572754	-116.317360	-41.123905
9195.210132	139.708939	-112.869087	-37.032730
9195.213459	135.208649	-109.362373	-33.292229
9195.216798	131.994141	-105.738747	-30.019287
9195.220128	128.896545	-102.173592	-27.038574
9195.223463	125.857384	-99.426659	-23.122736
9195.226796	122.116890	-96.738167	-20.784922
9195.230138	118.902397	-93.699005	-17.453537
9195.233456	115.571007	-90.893631	-14.531269
9195.236791	112.531853	-88.088257	-12.368792
9195.240124	109.492691	-85.399765	-10.556985
9195.243457	106.161308	-83.237297	-8.160726
9195.246795	103.239044	-80.841034	-6.348921
9195.250129	100.608994	-78.561668	-4.946232
9195.253457	97.920517	-76.399193	-3.309761
9195.256789	95.348915	-74.470490	-1.381063
9195.260127	93.127991	-72.132675	0.372295
9195.263455	90.790176	-70.613091	1.248976
9195.266793	88.335472	-68.918182	2.300991
9195.270122	86.465225	-66.580368	3.353010
9195.273492	83.835182	-64.768562	3.879017
9195.276785	81.964928	-63.891884	5.983049
9195.280126	79.860901	-62.080070	7.561073
9195.284336	76.295731	-59.040916	8.729980
9195.287716	74.542374	-57.462891	9.723555
9195.291078	72.964340	-56.527763	10.308006
9195.294370	71.327873	-55.300415	10.366451
9195.297650	69.691406	-54.073059	10.717125
9195.300975	68.464050	-52.144363	11.476913
9195.303931	66.827583	-51.150795	11.593803
9195.307211	66.184685	-50.040329	12.178257
9195.310545	64.665108	-48.520752	13.347164
9195.313901	62.970192	-47.351845	13.171829
9195.317264	61.509056	-46.241386	14.223846
9195.320113	60.398594	-45.481590	14.574516
9195.323453	59.697250	-43.903572	14.457626
9195.326797	57.768555	-42.500885	14.340736
9195.330117	57.359436	-41.857979	15.275860
9195.333451	56.541203	-40.864410	15.918758
9195.336783	55.196957	-39.578613	16.152542
9195.340114	54.028049	-38.760376	15.743423
9195.343450	52.800697	-37.942139	15.918758
9195.346780	51.398010	-36.948570	16.152542
9195.350114	50.462883	-35.955002	16.094097
9195.353448	49.469315	-35.312103	17.379894
9195.356785	48.826416	-34.844543	17.204556
9195.360142	47.891289	-33.734077	17.321445
9195.363444	47.423725	-33.091179	17.379894
9195.366778	46.313263	-32.214493	17.496784
9195.370117	45.495029	-31.688486	18.315018
9195.373451	44.969021	-31.571596	17.964348
9195.376777	43.975449	-30.227354	17.613674
9195.380108	43.215660	-29.935125	17.496784
9195.383446	43.098770	-29.759794	18.724140
9195.386776	42.514317	-29.409121	17.964348
9195.390114	41.929863	-28.824667	18.022793
9195.393454	40.994736	-27.947985	18.022793
9195.396777	40.410282	-28.064875	18.841030
9195.400112	39.884277	-28.006433	18.198128
9195.403462	39.592049	-27.421980	18.022793
9195.406777	39.007595	-27.071306	17.321445
9195.410109	38.715370	-26.369963	18.490353
9195.414738	37.429573	-25.960844	18.256573
9195.417650	37.604908	-25.610170	18.841030
9195.420987	37.078896	-24.908827	18.081238
9195.424313	36.845116	-24.908827	17.029221
9195.427694	35.968437	-24.616602	18.607246
9195.431048	35.500874	-24.324373	18.373463
9195.433875	35.267090	-23.856810	18.548798
9195.437191	35.091759	-23.798361	18.315018
9195.440530	35.208649	-23.330801	18.256573
9195.443868	34.916420	-23.447691	18.315018
9195.447207	33.689068	-23.097017	18.315018
9195.450105	34.331966	-22.980127	18.198128
9195.453440	34.390411	-22.629454	17.847454
9195.456774	33.805962	-22.278784	17.964348
9195.460103	33.572178	-22.103449	17.847454
9195.463440	33.396843	-22.220343	17.789009
9195.466773	33.279953	-21.869669	18.315018
9195.470099	32.578606	-21.811220	18.081238
9195.473437	33.513733	-21.402105	16.970776
9195.476779	32.987724	-21.460550	18.139683
9195.480104	33.163063	-20.583872	18.198128
9195.483436	32.695496	-20.350092	18.373463
9195.486773	32.286377	-20.525423	18.548798
9195.490114	32.870834	-20.583872	18.081238
9195.493432	32.227936	-20.291643	18.081238
9195.496767	32.403267	-20.350092	17.379894
9195.500108	32.111042	-19.765638	18.198128
9195.503432	31.701925	-19.882528	18.315018
9195.506792	32.052597	-19.590300	18.315018
9195.510100	31.643480	-19.940969	18.431908
9195.513431	31.935707	-19.940969	17.789009
9195.516769	31.234364	-20.291643	17.905899
9195.520117	32.227936	-20.350092	17.496784
9195.523428	31.760370	-19.882528	18.022793
9195.526759	31.994152	-19.765638	17.789009
9195.530095	32.286377	-19.531855	18.315018
9195.533434	32.344826	-20.233198	18.198128
9195.536762	31.585035	-19.999418	17.321445
9195.540106	31.760370	-19.999418	17.905899
9195.544703	32.169487	-20.408533	18.022793
9195.547622	32.169487	-20.174753	17.672119
9195.551010	32.403267	-20.817652	17.964348
9195.554309	32.461716	-20.583872	18.198128
9195.557628	32.987724	-20.759207	18.256573
9195.561019	32.578606	-20.759207	17.730564
9195.563911	32.578606	-21.051435	17.613674
9195.567203	33.396843	-20.700762	18.022793
9195.570521	33.104614	-21.518995	18.022793
9195.573855	33.513733	-21.285215	18.256573
9195.577189	33.572178	-21.460550	17.146111
9195.580513	33.922852	-21.577440	18.081238
9195.583427	33.864403	-22.161894	18.373463
9195.586755	34.331966	-21.928110	18.782585
9195.590092	33.922852	-21.577440	18.081238
9195.593455	34.624191	-22.454123	18.198128
9195.596757	34.682640	-22.687902	18.431908
9195.600088	35.442429	-22.161894	17.672119
9195.603420	35.851547	-22.512564	17.905899
9195.606755	35.676208	-22.863237	17.204556
9195.610090	36.202217	-23.389250	17.555229
9195.613420	36.552887	-23.564581	17.029221
9195.616757	36.845116	-23.447691	17.379894
9195.620088	37.254234	-23.915258	17.379894
9195.623418	37.838688	-23.973700	17.321445
9195.626753	37.546463	-24.967276	17.672119
9195.630090	38.306252	-24.265932	17.613674
9195.633416	39.241379	-24.441263	17.672119
9195.636781	38.832260	-24.558153	17.672119
9195.640087	39.825829	-25.084166	18.081238
9195.643413	40.118057	-25.610170	17.087666
9195.646748	40.410282	-25.727060	17.263000
9195.650082	41.053185	-27.012857	17.555229
9195.653420	41.345409	-26.954416	17.496784
9195.656751	41.696083	-27.597311	17.672119
9195.660084	42.689651	-27.947985	17.905899
9195.663414	43.390999	-28.357103	17.496784
9195.666744	43.975449	-29.175341	17.964348
9195.670085	44.910576	-30.227354	17.613674
9195.673410	45.202805	-30.578028	16.853886
9195.677672	46.780827	-31.454702	16.912331
9195.680952	47.482170	-32.623611	16.327877
9195.684264	48.183517	-33.208069	15.568089
9195.687602	49.118641	-33.675636	15.568089
9195.690955	49.703094	-34.318527	15.334305
9195.694295	50.813557	-35.312103	16.386322
9195.697205	51.807129	-35.955002	15.158970
9195.700530	52.917591	-36.656342	15.801868
9195.703908	55.080067	-37.708359	15.042080
9195.707167	55.547630	-38.351265	13.990063
9195.710523	56.365864	-38.935715	14.048508
9195.713417	57.300991	-39.403275	13.697838
9195.716777	58.294563	-40.396843	13.814728
9195.720079	59.872585	-41.857979	13.405609
9195.723410	61.041492	-42.383995	12.996494
9195.726743	62.502628	-42.968445	11.886032
9195.730074	63.671535	-45.306259	12.821156
9195.733409	65.249557	-45.540039	11.593803
9195.736747	66.593803	-46.299828	11.593803
9195.740077	68.288719	-47.527184	11.243134
9195.743404	69.399178	-48.579201	10.658680
9195.746752	70.743423	-49.514320	10.834015
9195.750071	72.789009	-50.566338	9.723555
9195.753409	74.483925	-51.735245	9.022207
9195.756773	76.003502	-53.196381	9.431324
9195.760107	77.873756	-54.715958	7.677963
9195.763403	79.860901	-55.592636	6.976620
9195.766748	81.088249	-57.346001	6.742840
9195.770072	83.367615	-58.339569	5.457041
9195.773400	85.237869	-59.625366	5.106369
9195.776740	86.757446	-61.261841	4.346581
9195.780077	90.030388	-63.132088	3.294563
9195.783403	92.134422	-64.710114	2.067211
9195.786736	93.303329	-66.229698	1.658092
9195.790069	96.225601	-67.924606	-0.036821
9195.793409	98.797195	-70.145531	-1.497955
9195.796737	101.251892	-71.957344	-3.485098
9195.800069	103.940384	-74.412041	-4.069551
9195.803430	106.395088	-77.158966	-5.472239
9195.808094	111.421387	-81.367043	-10.264759
9195.811015	115.512558	-83.646408	-12.251901
9195.814261	118.434830	-86.218002	-14.531269
9195.817582	121.824661	-90.250740	-17.278202
9195.820923	125.214493	-92.588547	-18.797779
9195.824273	129.247223	-95.919937	-21.953829
9195.827631	132.578613	-98.666862	-25.928114
9195.830516	137.137344	-102.348915	-29.201054
9195.833849	140.936279	-104.745186	-32.532440
9195.837261	144.676788	-108.018120	-35.630043
9195.840506	148.300415	-110.940392	-40.714790
9195.843826	152.625366	-114.622444	-44.513737
9195.846765	157.008759	-117.953835	-48.663357
9195.850069	161.859726	-121.635887	-53.046757
9195.853398	166.535355	-124.791939	-58.715958
9195.856735	171.094086	-128.181763	-64.151375
9195.860063	176.938629	-131.922272	-70.814148
9195.863398	181.789612	-136.013428	-77.301582
9195.866727	186.757446	-139.461716	-83.379898
9195.870061	192.718872	-143.143768	-90.218002
9195.873397	197.686737	-146.708939	-98.108124
9195.876729	203.180603	-150.566330	-106.524261
9195.880063	208.908234	-154.306839	-113.829926
9195.883397	214.752777	-158.456451	-122.772064
9195.886728	220.071289	-161.846283	-132.006424
9195.890085	226.032745	-166.171234	-141.766800
9195.893444	231.351257	-170.028641	-153.046753
9195.896730	237.488007	-173.827576	-164.326706
9195.900056	243.274109	-178.269424	-175.197540
9195.903391	249.060211	-183.003494	-187.587952
9195.906728	254.378723	-187.094681	-202.374634
9195.910060	260.749268	-191.770309	-215.817062
9195.913392	266.827606	-196.504379	-230.954407
9195.916721	271.737000	-199.952652	-245.331970
9195.920063	277.055511	-205.154297	-262.807129
9195.923394	282.666260	-208.836334	-279.756287
9195.926727	288.627716	-213.044403	-298.458801
9195.930057	292.835785	-217.603165	-317.979553
9195.933394	297.803619	-222.629456	-339.136780
9195.936724	301.894806	-227.246628	-360.410889
9195.940073	306.161285	-231.337814	-383.789032
9195.944322	312.882507	-238.935715	-430.603760
9195.947644	315.337219	-241.799515	-456.261261
9195.950979	316.798370	-244.780258	-481.217438
9195.954250	318.142609	-247.351822	-508.452942
9195.957568	318.902374	-248.988327	-537.208069
9195.960895	318.201050	-251.209244	-564.735840
9195.963818	316.506134	-251.559891	-593.081787
9195.967140	314.577454	-251.676804	-622.421387
9195.970508	311.362946	-250.858566	-650.475159
9195.973838	306.921082	-248.988327	-679.639404
9195.977165	302.187012	-246.358261	-708.219177
9195.980091	295.816467	-243.319107	-736.448303
9195.983425	288.510803	-239.403275	-763.859131
9195.986715	280.211578	-234.318527	-791.620667
9195.990048	270.217407	-228.357101	-818.739319
9195.993382	259.931030	-220.992996	-843.111023
9195.996742	248.475739	-212.576843	-867.774963
9196.000055	235.150208	-203.693146	-889.925781
9196.003381	221.473999	-193.699005	-911.433716
9196.006715	206.278198	-183.412628	-931.363586
9196.010052	190.030396	-170.905319	-948.488037
9196.013380	172.964355	-158.398010	-964.385132
9196.016713	155.021622	-145.306259	-977.710754
9196.020042	136.143768	-130.578018	-988.698364
9196.023382	116.739914	-116.083580	-997.056091
9196.026736	96.459381	-100.712456	-1004.361816
9196.030051	75.769722	-84.581535	-1009.037415
9196.033380	54.378723	-69.385750	-1010.381714
9196.036717	31.643480	-52.728821	-1010.381714
9196.040057	9.843365	-36.422562	-1008.978943
9196.043382	-11.898308	-20.466982	-1003.485107
9196.046742	-33.756874	-4.160727	-996.296326
9196.050044	-55.849205	12.379309	-987.354187
9196.053375	-77.590889	28.334890	-976.191162
9196.056708	-99.332558	44.641144	-963.742249
9196.060043	-119.846886	60.187607	-949.306274
9196.063381	-140.536530	74.682053	-931.305115
9196.066712	-159.823517	89.293396	-913.070129
9196.070065	-178.233795	102.209816	-893.198669
9196.074676	-211.138519	127.107536	-849.890747
9196.077610	-226.684998	139.147278	-826.395691
9196.080913	-240.478088	149.667450	-802.199341
9196.084319	-253.043854	159.778503	-777.184692
9196.087655	-264.499146	168.837524	-752.871399
9196.090894	-274.610168	177.429001	-728.032166
9196.093804	-283.786102	184.676224	-701.497925
9196.097130	-291.500885	191.514328	-676.834045
9196.100461	-298.163635	197.125076	-650.708984
9196.103800	-302.663940	202.618942	-624.992981
9196.107166	-308.216248	206.943893	-599.452332
9196.110043	-310.554077	211.444183	-573.853333
9196.113374	-312.774994	214.600250	-550.358276
9196.116706	-314.645233	216.587372	-527.272339
9196.120033	-315.288147	218.983643	-503.952667
9196.123369	-314.528381	220.327881	-480.340729
9196.126703	-313.417877	221.496780	-459.183502
9196.130034	-311.430756	221.613678	-438.435425
9196.133379	-308.917603	221.146118	-417.862671
9196.136704	-306.053772	220.620102	-398.575684
9196.140035	-302.547058	220.210999	-380.165405
9196.143373	-299.040344	218.808304	-362.105804
9196.146705	-294.773834	217.054947	-344.046204
9196.150069	-290.857971	214.658676	-327.155487
9196.153370	-285.656342	212.437759	-310.907654
9196.156702	-282.032745	210.509064	-295.653412
9196.160033	-277.473999	207.236130	-281.100555
9196.163370	-271.921692	204.138519	-266.606079
9196.166702	-267.246063	200.222687	-252.696075
9196.170031	-262.219757	197.358856	-240.948578
9196.173368	-256.609009	193.852142	-228.791916
9196.176692	-251.874939	190.170074	-217.102859
9196.180027	-246.322632	186.663361	-205.764465
9196.183361	-241.880768	183.156631	-194.776733
9196.186692	-236.328491	178.481003	-183.672119
9196.190031	-231.302155	175.208069	-174.379303
9196.193377	-226.334320	171.000000	-164.969604
9196.196750	-221.132690	166.382812	-156.144363
9196.201296	-211.781433	159.018707	-139.604324
9196.204664	-206.930481	154.927521	-131.071304
9196.207552	-201.962616	151.245468	-123.940979
9196.210905	-197.462311	147.738754	-117.687317
9196.214245	-192.085327	143.822906	-110.556992
9196.217619	-188.403290	140.257751	-103.718872
9196.220976	-184.487427	136.517242	-98.049683
9196.223788	-179.928711	133.478073	-93.315598
9196.227112	-175.545288	130.497375	-87.997086
9196.230450	-170.752777	127.049088	-82.795441
9196.233788	-166.953827	123.659256	-77.769150
9196.237152	-163.154877	121.204552	-73.385742
9196.240020	-158.888367	118.223839	-69.119232
9196.243362	-154.914093	115.301575	-65.086502
9196.246695	-151.524261	112.905319	-61.170662
9196.250022	-147.842194	110.625946	-57.780830
9196.253354	-143.984802	107.879013	-54.858566
9196.256695	-140.828766	105.599648	-51.585625
9196.260021	-137.789612	103.787842	-48.780247
9196.263353	-134.341339	101.216248	-45.974869
9196.266689	-131.185272	99.579773	-42.585037
9196.270029	-128.146118	97.475746	-40.890121
9196.273354	-124.580940	94.904152	-38.493866
9196.276688	-122.243126	93.793686	-35.980713
9196.280057	-119.554649	91.689651	-33.935127
9196.283350	-116.457054	89.877846	-32.006432
9196.286689	-114.002342	87.773811	-31.012859
9196.290018	-111.956749	86.312683	-28.791935
9196.293351	-109.092934	85.085327	-27.097019
9196.296680	-107.105797	83.215080	-25.518995
9196.300016	-104.475746	81.753944	-24.116306
9196.303351	-102.488609	80.585037	-22.421392
9196.306684	-100.676796	78.948563	-20.258915
9196.310015	-98.397438	77.604324	-18.680889
9196.313353	-96.176506	76.201637	-17.687319
9196.316684	-94.072472	74.798950	-16.459967
9196.320014	-93.020470	72.753357	-15.349504
9196.323373	-90.857979	71.759789	-14.297488
9196.326683	-89.513725	71.058441	-13.537698
9196.330021	-87.117485	69.480415	-11.492110
9196.334282	-84.487434	66.675041	-9.621860
9196.337535	-82.558739	65.272354	-8.745179
9196.340867	-81.565163	64.454117	-8.569843
9196.344208	-79.636467	63.109879	-7.634718
9196.347571	-78.876686	61.882523	-7.400936
9196.350887	-77.181770	60.772060	-6.056692
9196.353800	-76.129753	59.661598	-5.472239
9196.357127	-74.668625	58.901810	-5.589130
9196.360461	-73.441269	58.317356	-4.303333
9196.363783	-72.155464	57.382233	-3.426653
9196.367125	-71.220337	56.563995	-2.725307
9196.370012	-70.109879	55.161308	-1.848629
9196.373352	-68.999420	55.044418	-1.790182
9196.376681	-67.538284	54.109291	-1.205729
9196.380011	-66.252480	53.349503	-0.738165
9196.383342	-65.258919	52.765049	0.255405
9196.386679	-64.791344	52.881939	0.664522
9196.390004	-63.622444	51.654587	0.489187
9196.393343	-62.745766	51.128578	1.015194
9196.396701	-61.869087	50.368790	1.073641
9196.400010	-60.524849	49.784332	2.067211
9196.403337	-60.174171	49.609001	2.008766
9196.406681	-59.472824	49.199883	1.307421
9196.410009	-58.771477	48.907654	2.125656
9196.413340	-57.544128	48.440094	2.534773
9196.416722	-57.310341	47.446522	2.242546
9196.420008	-56.842781	47.914085	2.476328
9196.423340	-56.375221	47.329628	3.177673
9196.426670	-56.024551	46.920513	2.943892
9196.430004	-55.264763	46.452950	2.710110
9196.433340	-55.206314	45.868496	3.528345
9196.436675	-54.212738	45.634712	2.943892
9196.440006	-53.862076	45.284042	3.411455
9196.443335	-53.219177	45.459377	3.469900
9196.446668	-52.517830	44.524254	3.820572
9196.450005	-52.517830	44.232025	3.353010
9196.453363	-51.582710	43.998245	3.820572
9196.456673	-51.465813	43.998245	4.171244
9196.460009	-50.706017	43.472237	4.229689
9196.464689	-50.822914	43.355347	4.580362
9196.467584	-50.121574	42.478664	4.814142
9196.470972	-49.654007	42.361774	4.346581
9196.474190	-49.244896	42.244884	4.697252
9196.477528	-49.303329	41.660431	4.580362
9196.480871	-48.426651	41.426651	5.690823
9196.483803	-48.543549	41.251312	5.573933
9196.487091	-48.835770	41.017532	5.573933
9196.490445	-48.192871	41.251312	5.281706
9196.493781	-48.075989	40.666859	4.931034
9196.497133	-48.017540	40.666859	5.807713
9196.500423	-47.257744	40.374634	5.866159
9196.503337	-47.257744	40.023960	5.690823
9196.506664	-46.673294	40.316189	5.866159
9196.509996	-47.082413	39.907070	5.866159
9196.513333	-46.790184	39.907070	5.515488
9196.516664	-46.205734	39.497952	4.814142
9196.519998	-46.264175	39.205727	5.281706
9196.523335	-45.738167	39.614845	5.632378
9196.526662	-45.738167	39.614845	6.158386
9196.529997	-46.264175	39.381062	6.625948
9196.533326	-45.796608	39.205727	6.567503
9196.536661	-46.030388	39.731735	6.158386
9196.540018	-45.270607	39.731735	5.632378
9196.543324	-45.913498	40.082405	5.106369
9196.546661	-46.205734	40.023960	6.099939
9196.549996	-46.030388	40.023960	5.632378
9196.553331	-46.205734	39.673286	4.755697
9196.556663	-45.855057	40.023960	4.638807
9196.560023	-46.614845	39.965515	4.521915
9196.563322	-46.147285	40.316189	5.223261
9196.566661	-46.614845	40.549969	5.807713
9196.570000	-46.381065	40.140854	4.814142
9196.573330	-46.439514	40.491524	5.164814
9196.576656	-46.614845	40.608414	4.288136
9196.579993	-47.491531	40.725304	5.106369
9196.583357	-47.199295	40.549969	4.580362
9196.586656	-47.549980	40.257744	4.872589
9196.590002	-46.907082	40.900642	4.580362
9196.593321	-47.433083	41.075977	4.405025
9196.597535	-48.309769	41.075977	3.879017
9196.600918	-48.251320	40.900642	4.638807
9196.604263	-48.894218	41.134422	4.580362
9196.607577	-49.186447	42.011101	4.112799
9196.610834	-49.011116	41.601986	4.288136
9196.614176	-49.478676	41.601986	3.645237
9196.617075	-49.420227	42.303329	3.879017
9196.620424	-49.770897	42.011101	4.171244
9196.623740	-50.121574	42.011101	3.236118
9196.627147	-50.939796	42.595558	3.411455
9196.630433	-51.173584	42.829338	3.294563
9196.633321	-51.816490	43.063118	3.469900
9196.636680	-52.459381	43.121563	2.300991
9196.639985	-52.926949	43.647575	3.002338
9196.643319	-53.336060	43.881355	2.827002
9196.646659	-53.569839	44.115135	3.060783
9196.649983	-53.569839	44.582699	3.119228
9196.653315	-54.446518	44.348915	2.827002
9196.656652	-55.323212	45.108707	2.534773
9196.659987	-55.381645	46.043831	2.943892
9196.663315	-55.966103	46.336060	1.599648
9196.666650	-57.193459	46.745178	2.476328
9196.670018	-58.479248	47.446522	1.950319
9196.673314	-58.362366	47.504967	1.132086
9196.676653	-59.589722	48.147865	1.716539
9196.679983	-60.057281	48.615425	0.956749
