time (s)	magX	magY	magZ
7463.698886	-191.500885	-94.283516	-27.506126
7463.702246	-196.468750	-96.738213	-30.720621
7463.705557	-202.371735	-99.777367	-34.753349
7463.708888	-207.514893	-102.290520	-39.136753
7463.712211	-213.125671	-104.686775	-42.935699
7463.715548	-218.677979	-108.368843	-48.137337
7463.718882	-224.814758	-110.414421	-53.455864
7463.722213	-231.535950	-113.044472	-58.248383
7463.725575	-237.906494	-116.492744	-64.092918
7463.728883	-244.861511	-119.005898	-69.703674
7463.732213	-251.816498	-121.928154	-76.834007
7463.735547	-257.953247	-125.025764	-83.847443
7463.738885	-265.258942	-127.948036	-90.977776
7463.742211	-272.681458	-130.519638	-99.627693
7463.745543	-279.811798	-133.734131	-108.745163
7463.748876	-287.701935	-136.714844	-117.044411
7463.752213	-295.241394	-139.637115	-127.564568
7463.755540	-302.839264	-142.559387	-138.260071
7463.758874	-311.313873	-145.481644	-149.189346
7463.762211	-319.262421	-148.637695	-161.871979
7463.765540	-326.977234	-151.443069	-173.385712
7463.768900	-335.919342	-154.073120	-186.535950
7463.772209	-344.277039	-156.644714	-200.329041
7463.775536	-352.400940	-159.976089	-216.050842
7463.778874	-360.174194	-162.781479	-231.538849
7463.782216	-368.298065	-165.119293	-248.137329
7463.785544	-376.655792	-167.690887	-264.969604
7463.788869	-383.961456	-169.911804	-283.204529
7463.792213	-392.436005	-172.366516	-302.959076
7463.796837	-407.631805	-176.983704	-343.227905
7463.799749	-413.184082	-178.035706	-365.144928
7463.803162	-419.554626	-179.613739	-388.581512
7463.806475	-425.749847	-180.548874	-412.251892
7463.809797	-431.302185	-180.957977	-436.915802
7463.813087	-435.744019	-181.250198	-461.462860
7463.815962	-439.075409	-180.315079	-486.945038
7463.819293	-441.880768	-180.022842	-515.291077
7463.822633	-443.809479	-178.795486	-541.942200
7463.825966	-445.095276	-177.042145	-569.703674
7463.829294	-444.452362	-174.587433	-597.932800
7463.832647	-443.166565	-171.022263	-626.337280
7463.835543	-440.711853	-166.989548	-653.981873
7463.838870	-437.029816	-161.787903	-682.386353
7463.842207	-430.893066	-157.053833	-710.673889
7463.845547	-423.002930	-149.865036	-738.377014
7463.848900	-414.411469	-142.500931	-765.904785
7463.852203	-404.767975	-135.019928	-793.374084
7463.855540	-393.604919	-124.908882	-819.206909
7463.858870	-380.630035	-115.090050	-845.156677
7463.862200	-365.492706	-104.102333	-869.528381
7463.865525	-349.887787	-92.647041	-893.374084
7463.868868	-331.594391	-79.613724	-914.531250
7463.872203	-312.658112	-65.820618	-934.928711
7463.875533	-291.384003	-51.793739	-952.111633
7463.878869	-269.408539	-36.247276	-968.534790
7463.882196	-245.562836	-20.467031	-982.503235
7463.885530	-221.132690	-4.862120	-994.075378
7463.888866	-195.416748	11.502579	-1002.725342
7463.892218	-169.467010	28.159504	-1008.862122
7463.895527	-141.588562	45.400883	-1013.946838
7463.898862	-113.710136	62.466927	-1015.466431
7463.902193	-85.714806	78.948517	-1013.829895
7463.905529	-56.959694	95.196327	-1010.030945
7463.908866	-28.905922	111.210358	-1003.894226
7463.912221	-0.793705	126.815262	-995.653442
7463.915526	26.909391	141.601929	-984.490417
7463.918864	55.255386	155.862595	-972.976624
7463.922194	81.438904	168.895920	-958.365234
7463.925530	106.278183	181.052536	-941.416199
7463.928864	131.292786	192.975388	-922.830505
7463.933515	177.464630	212.788361	-881.918823
7463.936442	197.803589	220.736938	-859.417358
7463.939733	216.973694	227.867264	-835.571594
7463.943125	235.383972	234.471603	-812.135010
7463.946463	251.865570	240.082352	-786.886658
7463.949802	266.944458	244.524200	-761.696655
7463.952612	280.328430	247.797150	-736.565186
7463.955957	292.426636	250.719421	-710.381653
7463.959275	302.946808	252.998764	-683.438354
7463.962612	312.181152	254.985916	-658.832825
7463.965949	319.779053	255.570374	-633.467590
7463.969278	327.727631	255.453476	-608.452942
7463.972182	332.753937	254.927475	-583.672119
7463.975529	336.903564	253.466339	-559.358887
7463.978872	340.176483	253.115662	-535.104065
7463.982189	342.748108	250.368729	-512.018127
7463.985522	343.800079	248.498474	-488.055481
7463.988855	343.975464	245.400864	-465.203369
7463.992202	343.683228	243.004623	-442.351227
7463.995523	342.455872	239.614792	-421.778473
7463.998856	340.468719	236.984741	-399.803009
7464.002188	337.897125	233.419571	-380.866730
7464.005520	334.098175	229.679077	-360.936859
7464.008855	330.942139	225.821686	-341.123901
7464.012189	326.324951	222.022736	-323.999420
7464.015518	321.532410	217.522446	-306.699554
7464.018853	316.915253	213.197495	-290.101105
7464.022222	311.655182	208.814087	-273.853271
7464.025515	305.693726	204.313797	-259.417267
7464.028850	300.199860	199.345932	-244.396851
7464.032187	294.004639	195.371658	-230.194611
7464.035516	288.510803	191.163589	-216.927521
7464.038845	282.140259	186.371078	-203.660431
7464.042183	275.652802	181.637009	-192.088257
7464.045517	269.223816	177.312042	-180.399170
7464.048848	263.087067	172.051956	-170.054352
7464.052179	256.424316	168.311447	-160.235535
7464.055512	249.644623	163.402039	-148.955566
7464.058895	243.215637	159.193985	-139.721191
7464.062180	237.312683	154.927475	-130.662170
7464.065551	231.000549	149.901184	-121.836929
7464.070143	219.194611	141.835724	-107.810043
7464.073026	213.408508	138.212097	-101.088821
7464.076401	208.265320	134.062485	-94.133827
7464.079719	203.180573	129.971298	-87.587952
7464.083136	197.511383	126.464592	-82.269424
7464.085962	192.368195	122.899429	-77.184677
7464.089331	187.108093	119.275810	-72.158371
7464.092600	183.016937	116.178207	-67.073631
7464.095937	178.691986	113.431274	-62.573338
7464.099259	173.782562	109.866112	-59.241955
7464.102611	169.282288	106.534729	-54.215652
7464.105510	164.840424	103.554016	-50.884270
7464.108868	160.457031	100.865524	-47.903557
7464.112171	156.716522	98.293930	-45.098175
7464.115512	153.151352	95.956116	-41.299229
7464.118836	149.060181	93.033844	-38.493851
7464.122171	144.735229	89.819351	-36.097595
7464.125506	141.462280	87.832214	-32.824654
7464.128842	138.130890	85.494400	-30.895958
7464.132169	135.033295	83.565697	-27.973690
7464.135505	131.585022	81.111000	-25.986547
7464.138882	128.545868	78.890068	-23.122725
7464.142170	125.740479	77.954948	-20.375793
7464.145508	121.824646	75.324905	-18.154869
7464.148840	119.136162	73.396210	-16.050837
7464.152190	115.980103	71.525955	-14.589704
7464.155507	113.350067	69.480370	-12.602561
7464.158839	110.252464	67.902344	-10.673864
7464.162173	107.563980	66.558105	-8.803613
7464.165502	104.700157	64.804741	-7.985378
7464.168831	102.362343	63.168274	-6.758026
7464.172169	99.615410	61.298019	-5.472227
7464.175500	97.277603	59.778442	-3.718868
7464.178834	95.056671	58.551086	-2.257734
7464.182165	92.718857	57.031509	-1.614834
7464.185505	90.088821	56.037941	0.489199
7464.188831	88.510796	54.693695	1.541214
7464.192162	85.939201	53.700127	2.008778
7464.195503	84.361176	52.355881	2.768566
7464.198836	82.023361	51.303864	3.762138
7464.203545	78.808868	48.673824	5.515499
7464.206421	77.055504	47.972481	6.450624
7464.209682	76.178825	46.803574	6.976631
7464.213042	74.016350	45.225548	7.736422
7464.216371	73.315002	44.874874	7.385750
7464.219704	71.503197	43.939751	8.437765
7464.222615	70.334290	43.063068	9.080664
7464.225967	68.990044	41.777271	9.256001
7464.229336	67.587357	41.134373	9.840454
7464.232582	66.944458	40.433029	10.834026
7464.235922	65.775551	40.257690	10.132683
7464.239262	64.314415	38.855003	10.950916
7464.242165	62.853283	38.445885	10.775581
7464.245488	61.742821	37.452316	11.593815
7464.248831	61.742821	36.341854	11.886044
7464.252161	60.398579	36.049629	11.652260
7464.255488	59.697235	35.757401	12.178268
7464.258827	58.294548	35.231392	12.119823
7464.262160	57.534756	34.179375	11.535370
7464.265494	56.833412	34.004040	12.178268
7464.268830	56.132069	32.952023	11.944489
7464.272161	55.138496	32.952023	12.528942
7464.275494	54.612488	31.900007	13.230286
7464.278825	53.852699	32.075344	13.171841
7464.282157	52.742237	31.666225	13.288731
7464.285535	51.690220	30.789545	14.340748
7464.288824	50.813541	29.854420	13.288731
7464.292152	49.878414	29.386856	13.464066
7464.295490	49.761524	29.153076	12.938057
7464.298853	49.235516	28.919294	13.113396
7464.302156	47.774384	27.925724	14.340748
7464.305484	47.949718	28.276396	13.697849
7464.308816	46.663921	27.516605	13.990074
7464.312176	46.663921	27.165934	14.574528
7464.315482	45.787239	26.990597	14.516083
7464.318816	45.553459	26.698370	14.106964
7464.322149	45.319679	26.113918	14.106964
7464.325485	44.735222	26.406143	14.866756
7464.328821	44.559887	25.471018	15.100536
7464.332151	43.274090	25.354128	15.626545
7464.335489	42.923416	25.003456	15.100536
7464.340182	41.696068	25.003456	15.568100
7464.343122	41.812958	25.061901	15.860325
7464.346338	41.228504	24.302111	14.399193
7464.349673	41.286949	24.185221	14.516083
7464.352998	41.696068	23.600767	15.392761
7464.356373	39.942703	23.600767	14.808308
7464.359676	40.527161	23.717657	15.100536
7464.362593	40.351822	23.425430	15.451210
7464.365924	39.592033	23.425430	15.568100
7464.369239	39.475143	23.016314	16.210999
7464.372574	39.358253	22.665642	15.977215
7464.375913	39.066025	22.782532	16.853897
7464.378813	39.299805	22.607197	16.035660
7464.382152	38.949135	22.081188	15.801880
7464.385505	38.832245	22.198078	14.866756
7464.388818	38.890690	21.847406	16.327888
7464.392148	39.182915	22.139633	15.392761
7464.395482	39.066025	21.905851	15.392761
7464.398822	39.299805	21.672070	15.158981
7464.402145	38.540016	21.672070	16.210999
7464.405480	38.773800	21.788961	16.152554
7464.408814	39.007580	21.847406	16.094109
7464.412145	39.066025	21.730515	16.210999
7464.415481	39.007580	22.081188	15.100536
7464.418874	39.124470	22.081188	14.983646
7464.422150	39.182915	21.788961	15.042091
7464.425473	39.007580	22.081188	15.392761
7464.428837	39.007580	21.847406	15.626545
7464.432148	39.124470	22.548750	15.801880
7464.435476	39.182915	21.730515	15.684990
7464.438803	39.533588	21.905851	15.392761
7464.442153	39.592033	22.198078	15.568100
7464.445476	39.650478	22.607197	15.626545
7464.448809	39.884262	22.373413	15.275871
7464.452135	39.708923	22.314968	15.100536
7464.455470	39.592033	22.548750	14.691418
7464.458806	39.650478	23.191650	15.743435
7464.462138	40.118042	22.782532	15.509655
7464.465475	40.819386	23.133205	15.158981
7464.468800	40.760941	22.782532	15.042091
7464.472152	40.468712	23.250095	15.568100
7464.476389	40.527161	23.659212	15.392761
7464.479655	40.644051	22.899424	15.451210
7464.482988	41.345394	23.366985	15.275871
7464.486341	41.462284	23.600767	14.925201
7464.489689	41.696068	23.659212	14.749863
7464.493075	42.397411	23.951439	15.158981
7464.495916	42.864975	23.951439	14.866756
7464.499240	43.157200	24.711229	14.749863
7464.502555	43.800098	24.769674	14.866756
7464.505902	44.209217	24.652782	15.451210
7464.509264	44.969006	25.178791	14.808308
7464.512563	44.676781	25.646355	14.457638
7464.515466	45.670349	25.587910	14.516083
7464.518804	46.137913	26.347698	13.931629
7464.522131	46.956146	26.639925	13.814739
7464.525462	46.839256	25.997026	14.223858
7464.528807	47.949718	26.581480	13.873184
7464.532133	48.767952	27.107489	13.639404
7464.535466	49.235516	27.575050	13.990074
7464.538803	50.170643	28.101059	13.405621
7464.542130	50.755096	28.568623	14.048519
7464.545490	51.865559	28.977739	12.938057
7464.548802	52.683792	29.562193	12.528942
7464.552129	53.852699	29.562193	12.879612
7464.555465	55.196941	30.263536	12.236713
7464.558823	55.430725	31.023327	11.301590
7464.562129	56.365849	32.542908	11.301590
7464.565469	57.300976	32.659798	11.652260
7464.568795	58.060764	33.127361	10.950916
7464.572138	59.521900	33.478031	11.301590
7464.575463	59.931015	34.120930	10.834026
7464.578791	60.690807	35.114502	10.191128
7464.582125	62.151939	35.172947	10.366463
7464.585461	63.613075	36.049629	9.431335
7464.588790	64.197525	36.867863	9.022219
7464.592129	65.307991	37.452316	9.548225
7464.595458	65.950890	38.095215	8.788437
7464.598790	67.236687	38.445885	8.554655
7464.602141	68.639374	39.030342	7.444195
7464.605458	70.392731	40.199249	7.268858
7464.608843	71.210968	41.075928	7.502640
7464.613401	74.191681	42.595505	6.918186
7464.616314	75.828156	43.238407	5.924616
7464.619627	77.581512	44.173531	4.872601
7464.622990	78.925758	44.699539	5.749279
7464.626331	80.445335	46.102226	4.638819
7464.629769	82.724701	46.978909	3.703693
7464.632573	84.185837	47.797142	2.768566
7464.635889	86.114532	49.316723	2.534784
7464.639215	87.575668	49.901176	2.067223
7464.642547	89.679703	51.420753	2.008778
7464.645896	92.075958	52.180546	-0.036810
7464.649218	94.238441	53.466343	-0.270592
7464.652119	96.167137	54.752140	-1.088825
7464.655452	98.738731	56.037941	-3.075970
7464.658786	101.368774	56.739281	-3.660421
7464.662120	104.115707	58.667976	-5.063110
7464.665454	106.804184	59.544659	-6.641136
7464.668784	109.609573	61.298019	-7.634706
7464.672121	112.531837	62.525372	-9.329621
7464.675453	115.278763	63.986504	-10.556973
7464.678784	118.259476	65.447639	-12.894788
7464.682180	121.240196	67.610115	-14.355923
7464.685450	124.805359	68.662132	-16.693737
7464.688791	128.312073	70.766167	-18.096424
7464.692120	132.286362	72.168854	-20.200457
7464.695448	135.676193	74.389778	-22.362936
7464.698779	139.650482	76.143143	-25.518984
7464.702115	142.806519	77.838051	-27.623016
7464.705454	146.663925	79.942085	-30.954403
7464.708780	150.404419	82.221458	-33.292217
7464.712114	154.963165	84.500824	-36.389820
7464.715447	158.762115	87.130867	-39.604317
7464.718777	163.613068	89.118011	-43.520153
7464.722115	167.821136	91.280487	-46.150192
7464.725446	173.373444	93.676743	-50.007587
7464.728778	177.347717	96.423683	-54.215652
7464.732122	182.198700	98.644608	-57.663929
7464.735444	187.225006	100.807076	-62.865562
7464.738780	192.485077	103.787796	-66.956741
7464.742112	197.628265	106.768509	-71.924591
7464.745446	202.888367	109.164764	-77.360016
7464.749717	214.460541	114.892410	-88.289291
7464.752956	219.662170	116.996445	-94.367607
7464.756291	225.740479	120.327827	-100.387482
7464.759617	231.409698	123.133209	-107.576256
7464.762991	238.306244	125.763245	-115.349495
7464.766325	244.092316	128.627060	-123.239624
7464.769262	250.930450	131.549332	-131.947968
7464.772557	257.008728	134.646927	-140.071869
7464.775914	263.729980	137.335419	-150.124481
7464.779200	270.568085	140.491470	-160.352417
7464.782536	276.880157	143.063080	-170.171234
7464.785434	283.952057	145.400879	-181.568085
7464.788772	291.374603	148.030914	-193.607819
7464.792105	298.329620	151.537643	-206.465790
7464.795437	305.226166	153.817017	-219.499115
7464.798777	312.064270	157.089951	-234.519562
7464.802107	319.077728	158.901749	-247.669769
7464.805442	325.740479	161.940903	-263.508484
7464.808768	332.111023	164.454071	-279.639374
7464.812125	339.241364	165.973633	-297.056091
7464.815438	345.495026	168.486801	-314.239014
7464.818769	352.800690	170.415482	-333.701324
7464.822101	358.352997	171.759735	-352.286957
7464.825439	363.613098	173.279312	-371.866119
7464.828764	368.931610	174.740448	-393.666260
7464.832100	372.789001	176.026230	-414.998810
7464.835434	377.581512	176.143127	-437.558716
7464.838772	380.796021	176.786026	-459.767944
7464.842102	383.952057	176.727600	-483.613647
7464.845431	385.647003	176.318466	-508.569824
7464.848770	386.874329	175.441788	-533.935120
7464.852100	386.815887	173.805313	-559.008179
7464.855455	385.997650	172.461075	-584.724121
7464.858770	384.770294	169.772583	-610.849243
7464.862100	382.023346	166.733429	-636.915833
7464.865436	377.464630	162.817596	-665.203369
7464.868762	372.672119	158.843307	-690.685547
7464.872105	366.301575	153.933899	-718.330261
7464.875434	358.762115	148.381592	-743.753967
7464.878761	349.527740	141.894165	-769.762146
7464.883445	328.136749	127.049042	-822.070740
7464.886400	314.694305	118.282242	-847.669800
7464.889720	300.316772	108.872543	-872.216797
7464.892949	284.419617	98.761497	-896.121033
7464.896279	267.587341	87.423096	-918.564026
7464.899642	248.884827	76.260033	-940.773193
7464.902965	228.662750	63.518944	-960.761536
7464.905860	206.979523	50.777855	-979.580994
7464.909212	184.887177	36.984753	-995.185852
7464.912540	160.983032	21.788961	-1011.024597
7464.915893	135.442413	7.294514	-1024.817627
7464.919186	109.200447	-8.661066	-1035.220947
7464.922091	82.958481	-23.915308	-1044.338379
7464.925428	55.313835	-39.929329	-1051.293335
7464.928764	28.078299	-55.066681	-1054.274048
7464.932087	-0.209251	-72.015823	-1056.261230
7464.935426	-27.561676	-87.503853	-1054.858643
7464.938758	-55.732338	-103.634773	-1051.293335
7464.942133	-84.370552	-118.596779	-1045.273437
7464.945426	-110.554085	-133.325012	-1035.746948
7464.948760	-137.614288	-147.994797	-1024.934570
7464.952089	-163.505554	-161.846344	-1011.375244
7464.955424	-188.169495	-174.645889	-995.419617
7464.958755	-211.255432	-185.516708	-978.061401
7464.962092	-234.165985	-197.556458	-958.131531
7464.965426	-255.206329	-207.784409	-937.850952
7464.968758	-275.428406	-217.603226	-914.297485
7464.972086	-293.488037	-225.317978	-889.925781
7464.975417	-311.255432	-233.149673	-865.612488
7464.978822	-326.684998	-239.870895	-839.253601
7464.982095	-340.185883	-245.715439	-812.310364
7464.985450	-352.810059	-250.098831	-785.191711
7464.988750	-364.382233	-254.131577	-757.488586
7464.992089	-373.558167	-257.404480	-731.129761
7464.995425	-381.565155	-259.625397	-703.251343
7464.998756	-388.286377	-261.320312	-675.314453
7465.002085	-393.312714	-261.729462	-647.786682
7465.005419	-398.806549	-262.664581	-621.018677
7465.008754	-401.261261	-262.255463	-594.133850
7465.012089	-403.306854	-260.852753	-568.184082
7465.015419	-403.891296	-259.742310	-542.175903
7465.020093	-403.131500	-256.410919	-492.497375
7465.023016	-402.956177	-254.891373	-469.528320
7465.026372	-399.858582	-251.267746	-445.741058
7465.029653	-397.170074	-248.754593	-423.298065
7465.032932	-393.663391	-244.955643	-402.433075
7465.036291	-389.864410	-242.500931	-381.509613
7465.039628	-385.714783	-238.234421	-361.287537
7465.042504	-380.746948	-234.260147	-341.182343
7465.045839	-375.369965	-230.870316	-321.778473
7465.049198	-369.466980	-226.486923	-304.478638
7465.052549	-363.973114	-221.811279	-287.646393
7465.055864	-357.719482	-217.953888	-271.223236
7465.058747	-351.641144	-212.576904	-254.916992
7465.062081	-344.393951	-208.602631	-240.130310
7465.065413	-337.731171	-204.043900	-226.337219
7465.068751	-330.717743	-199.777374	-211.901215
7465.072079	-323.119843	-195.277084	-198.517242
7465.075408	-316.457062	-189.900131	-185.834595
7465.078761	-309.092957	-185.516708	-174.963745
7465.082074	-301.962616	-180.256638	-163.800690
7465.085411	-295.241394	-175.639450	-153.280518
7465.088748	-288.111053	-170.437820	-142.994141
7465.092081	-281.448303	-166.755753	-133.175323
7465.095408	-275.136169	-162.021683	-125.226753
7465.098739	-268.882538	-157.638275	-117.278191
7465.102075	-262.161316	-153.079544	-108.511383
7465.105409	-255.323212	-149.455933	-101.614838
7465.108740	-249.946228	-145.189423	-95.010513
7465.112074	-244.043243	-141.332031	-88.815308
7465.115408	-238.374054	-137.123962	-82.152527
7465.118737	-232.178864	-133.617249	-77.009338
7465.122099	-227.210999	-130.110519	-71.281693
7465.125409	-222.301605	-126.720680	-65.787834
7465.128736	-216.340149	-123.564629	-61.813549
7465.132077	-212.365875	-119.941017	-56.962585
7465.135425	-207.339569	-117.778542	-53.280525
7465.138740	-202.430176	-114.973167	-49.014015
7465.142073	-198.280548	-111.875557	-45.448853
7465.145402	-193.780273	-108.894859	-42.409691
7465.148739	-190.039764	-106.615471	-39.019859
