time (s)	det(V)
7463.697589	-0.014719	
7463.699199	-0.014674	
7463.700829	-0.013619	
7463.702503	-0.008060	
7463.704066	-0.005909	
7463.705741	-0.003661	
7463.707318	0.004730	
7463.708991	0.012634	
7463.710580	0.017468	
7463.712273	0.025702	
7463.713835	0.032425	
7463.715531	0.037404	
7463.717076	0.041952	
7463.718786	0.051390	
7463.720301	0.060309	
7463.722073	0.069308	
7463.723559	0.081220	
7463.725333	0.097377	
7463.726822	0.105853	
7463.728606	0.119839	
7463.730083	0.133137	
7463.731877	0.147611	
7463.733351	0.157697	
7463.735144	0.175092	
7463.736615	0.192011	
7463.738374	0.207850	
7463.739876	0.225764	
7463.741621	0.252468	
7463.743139	0.270732	
7463.744854	0.294213	
7463.746384	0.317976	
7463.748090	0.346054	
7463.749635	0.366248	
7463.751339	0.395993	
7463.752892	0.423418	
7463.754564	0.452736	
7463.756132	0.485885	
7463.757824	0.527703	
7463.759396	0.568232	
7463.761049	0.607246	
7463.762644	0.650808	
7463.764276	0.699748	
7463.765881	0.745574	
7463.767485	0.791707	
7463.769144	0.853026	
7463.770733	0.909148	
7463.772421	0.969428	
7463.774009	1.034393	
7463.775657	1.105287	
7463.777240	1.172774	
7463.778921	1.248160	
7463.780481	1.318893	
7463.782188	1.400777	
7463.783735	1.473923	
7463.785459	1.565894	
7463.786975	1.627954	
7463.788735	1.636570	
7463.790238	1.636542	
7463.791992	1.636639	
7463.793484	1.636570	
7463.795252	1.636744	
7463.796732	1.636578	
7463.798234	1.636514	
7463.799800	1.636566	
7463.801363	1.636615	
7463.802953	1.636603	
7463.804448	1.636679	
7463.806106	1.636526	
7463.807608	1.636756	
7463.809235	1.636659	
7463.810755	1.636679	
7463.812394	1.636607	
7463.813871	1.636570	
7463.815510	1.636727	
7463.816989	1.636671	
7463.818698	1.636643	
7463.820174	1.636663	
7463.821872	1.636619	
7463.823355	1.636595	
7463.825046	1.636780	
7463.826544	1.636582	
7463.828198	1.636840	
7463.829733	1.636591	
7463.831364	1.636796	
7463.832911	1.636558	
7463.834501	1.636756	
7463.836086	1.636607	
7463.837744	1.636901	
7463.839321	1.636566	
7463.840966	1.636925	
7463.842577	1.636607	
7463.844204	1.636852	
7463.845836	1.636587	
7463.847441	1.636812	
7463.849110	1.636643	
7463.850710	1.636687	
7463.852375	1.636679	
7463.853956	1.636691	
7463.855643	1.636711	
7463.857204	1.636732	
7463.858912	1.636679	
7463.860454	1.636720	
7463.862158	1.636651	
7463.863692	1.636651	
7463.865418	1.636562	
7463.866933	1.636760	
7463.868671	1.636587	
7463.870146	1.636566	
7463.871936	1.636631	
7463.873428	1.636655	
7463.875192	1.636655	
7463.876674	1.636538	
7463.878436	1.636486	
7463.879927	1.634596	
7463.881693	1.506726	
7463.883198	1.365928	
7463.884968	1.223869	
7463.886478	1.092892	
7463.888195	0.943869	
7463.889712	0.811228	
7463.891426	0.670446	
7463.892967	0.535920	
7463.894656	0.392673	
7463.896213	0.263707	
7463.897894	0.120367	
7463.899451	-0.020999	
7463.901119	-0.165064	
7463.902699	-0.301060	
7463.904351	-0.437342	
7463.905957	-0.573761	
7463.907582	-0.707658	
7463.909207	-0.843284	
7463.910819	-0.979848	
7463.912478	-1.118204	
7463.914086	-1.245354	
7463.915741	-1.385443	
7463.917351	-1.516654	
7463.919034	-1.611444	
7463.920601	-1.617591	
7463.922289	-1.617785	
7463.923837	-1.617676	
7463.925539	-1.617797	
7463.927096	-1.617732	
7463.928789	-1.617785	
7463.930308	-1.617740	
7463.932048	-1.617781	
7463.933552	-1.617873	
7463.935104	-1.617954	
7463.936615	-1.617954	
7463.938208	-1.617857	
7463.939735	-1.617881	
7463.941284	-1.617938	
7463.942895	-1.617885	
7463.944388	-1.617974	
7463.946062	-1.617938	
7463.947554	-1.617982	
7463.949181	-1.618079	
7463.950714	-1.618183	
7463.952334	-1.618304	
7463.953806	-1.618107	
7463.955538	-1.618232	
7463.957011	-1.618147	
7463.958728	-1.618353	
7463.960213	-1.618300	
7463.961911	-1.618272	
7463.963395	-1.618284	
7463.965089	-1.618204	
7463.966580	-1.618260	
7463.968273	-1.618191	
7463.969790	-1.618256	
7463.971446	-1.618034	
7463.972979	-1.618232	
7463.974683	-1.617994	
7463.976230	-1.618095	
7463.977923	-1.617849	
7463.979473	-1.618051	
7463.981124	-1.617793	
7463.982709	-1.618026	
7463.984336	-1.617708	
7463.985952	-1.617865	
7463.987593	-1.617708	
7463.989201	-1.617841	
7463.990825	-1.617781	
7463.992448	-1.617861	
7463.994038	-1.617624	
7463.995725	-1.617825	
7463.997297	-1.617684	
7463.998980	-1.617809	
7464.000548	-1.617712	
7464.002249	-1.617712	
7464.003807	-1.617547	
7464.005497	-1.617696	
7464.007057	-1.617656	
7464.008784	-1.617672	
7464.010303	-1.617640	
7464.012044	-1.617688	
7464.013533	-1.608705	
7464.015287	-1.532469	
7464.016772	-1.466558	
7464.018542	-1.391163	
7464.020035	-1.325788	
7464.021832	-1.257153	
7464.023315	-1.200600	
7464.025068	-1.132876	
7464.026555	-1.077341	
7464.028301	-1.017158	
7464.029805	-0.963638	
7464.031550	-0.909775	
7464.033075	-0.864928	
7464.034810	-0.814316	
7464.036343	-0.770170	
7464.038057	-0.726011	
7464.039610	-0.686268	
7464.041299	-0.639785	
7464.042856	-0.601556	
7464.044541	-0.565398	
7464.046108	-0.529079	
7464.047773	-0.494713	
7464.049367	-0.468497	
7464.051035	-0.438796	
7464.052625	-0.410147	
7464.054274	-0.391471	
7464.055874	-0.365541	
7464.057496	-0.337633	
7464.059156	-0.312802	
7464.060747	-0.292866	
7464.062414	-0.270336	
7464.063986	-0.251310	
7464.065676	-0.236836	
7464.067254	-0.222967	
7464.068909	-0.204279	
7464.070396	-0.191598	
7464.071943	-0.180532	
7464.073438	-0.165382	
7464.075053	-0.149659	
7464.076573	-0.139794	
7464.078148	-0.130122	
7464.079686	-0.117292	
7464.081219	-0.108143	
7464.082833	-0.104111	
7464.084329	-0.095281	
7464.085955	-0.086399	
7464.087504	-0.080844	
7464.089159	-0.074813	
7464.090649	-0.063981	
7464.092357	-0.055223	
7464.093830	-0.051014	
7464.095571	-0.044661	
7464.097041	-0.037402	
7464.098761	-0.035428	
7464.100241	-0.034695	
7464.101955	-0.028395	
7464.103441	-0.025305	
7464.105132	-0.024358	
7464.106606	-0.019730	
7464.108354	-0.011750	
7464.109861	-0.009716	
7464.111605	-0.007290	
7464.113111	-0.003105	
7464.114822	-0.002162	
7464.116346	-0.004926	
7464.118043	-0.001623	
7464.119584	0.001495	
7464.121256	0.000134	
7464.122817	0.002708	
7464.124468	0.008964	
7464.126052	0.010748	
7464.127721	0.011699	
7464.129310	0.015599	
7464.130972	0.016783	
7464.132564	0.013085	
7464.134210	0.012521	
7464.135838	0.014450	
7464.137449	0.014080	
7464.139122	0.013641	
7464.140708	0.017826	
7464.142350	0.020416	
7464.143927	0.020187	
7464.145597	0.021170	
7464.147171	0.023446	
7464.148887	0.019715	
7464.150434	0.018378	
7464.152149	0.020259	
7464.153671	0.019957	
7464.155388	0.017907	
7464.156894	0.020070	
7464.158648	0.024207	
7464.160135	0.023059	
7464.161929	0.024570	
7464.163412	0.026604	
7464.165196	0.024014	
7464.166677	0.020622	
7464.168448	0.022986	
7464.169927	0.021528	
7464.171693	0.020320	
7464.173191	0.022036	
7464.174975	0.027462	
7464.176479	0.025657	
7464.178215	0.026052	
7464.179730	0.027977	
7464.181455	0.027248	
7464.182985	0.023530	
7464.184688	0.023176	
7464.186232	0.024364	
7464.187939	0.022241	
7464.189502	0.022334	
7464.191198	0.026793	
7464.192759	0.028598	
7464.194424	0.027478	
7464.196015	0.028594	
7464.197683	0.028316	
7464.199283	0.025065	
7464.200916	0.024042	
7464.202542	0.026910	
7464.204055	0.022692	
7464.205660	0.021814	
7464.207159	0.024791	
7464.208794	0.028477	
7464.210275	0.026797	
7464.211893	0.026870	
7464.213388	0.029069	
7464.214994	0.027861	
7464.216517	0.023587	
7464.218086	0.024457	
7464.219632	0.023176	
7464.221148	0.022261	
7464.222766	0.021875	
7464.224356	0.025520	
7464.225954	0.025967	
7464.227497	0.025154	
7464.229150	0.026362	
7464.230644	0.028006	
7464.232366	0.024916	
7464.233838	0.021540	
7464.235571	0.023341	
7464.237040	0.021242	
7464.238747	0.019631	
7464.240224	0.021826	
7464.241931	0.024944	
7464.243418	0.023559	
7464.245173	0.024114	
7464.246652	0.025706	
7464.248445	0.023546	
7464.249933	0.018833	
7464.251708	0.020259	
7464.253200	0.019325	
7464.254956	0.017343	
7464.256466	0.018954	
7464.258203	0.022426	
7464.259724	0.021142	
7464.261454	0.021846	
7464.262997	0.022934	
7464.264700	0.022737	
7464.266248	0.018813	
7464.267942	0.018322	
7464.269489	0.017725	
7464.271193	0.014144	
7464.272764	0.015659	
7464.274442	0.019168	
7464.276028	0.019671	
7464.277687	0.018261	
7464.279279	0.020759	
7464.280911	0.020070	
7464.282509	0.015933	
7464.284128	0.014426	
7464.285797	0.016171	
7464.287380	0.012215	
7464.289048	0.011590	
7464.290628	0.014954	
7464.292305	0.017178	
7464.293892	0.014189	
7464.295567	0.016710	
7464.297131	0.018245	
7464.298844	0.014189	
7464.300397	0.011570	
7464.302130	0.012928	
7464.303676	0.011308	
7464.305384	0.008670	
7464.306898	0.011490	
7464.308635	0.015603	
7464.310119	0.014547	
7464.311899	0.014394	
7464.313392	0.016215	
7464.315177	0.013447	
7464.316655	0.008239	
7464.318428	0.009850	
7464.319907	0.010031	
7464.321673	0.005931	
7464.323172	0.008690	
7464.324913	0.013089	
7464.326433	0.011695	
7464.328177	0.011776	
7464.329708	0.013907	
7464.331431	0.011961	
7464.332963	0.007469	
7464.334645	0.008126	
7464.336194	0.009093	
7464.337867	0.005371	
7464.339452	0.005975	
7464.340940	0.008811	
7464.342501	0.009306	
7464.344021	0.009363	
7464.345661	0.011337	
7464.347137	0.012908	
7464.348781	0.007735	
7464.350264	0.004758	
7464.351893	0.006768	
7464.353380	0.005165	
7464.354998	0.003566	
7464.356518	0.006192	
7464.358076	0.009024	
7464.359606	0.009475	
7464.361108	0.009061	
7464.362714	0.011244	
7464.364265	0.009975	
7464.365875	0.004783	
7464.367394	0.004557	
7464.369038	0.005282	
7464.370517	0.003779	
7464.372234	0.003598	
7464.373711	0.006192	
7464.375422	0.009967	
7464.376907	0.006978	
7464.378632	0.008138	
7464.380106	0.011071	
7464.381889	0.007449	
7464.383367	0.002660	
7464.385133	0.004577	
7464.386615	0.003912	
7464.388385	0.000541	
7464.389878	0.003284	
7464.391642	0.009157	
7464.393142	0.007344	
7464.394880	0.007437	
7464.396389	0.009331	
7464.398101	0.007824	
7464.399641	0.001326	
7464.401350	0.001113	
7464.402901	0.003526	
7464.404579	-0.000237	
7464.406142	-0.000297	
7464.407809	0.005580	
7464.409376	0.004396	
7464.411034	0.003449	
7464.412626	0.006652	
7464.414255	0.006253	
7464.415858	0.000275	
7464.417462	-0.001409	
7464.419122	0.001652	
7464.420698	-0.001711	
7464.422369	-0.002352	
7464.423951	0.001568	
7464.425612	0.002595	
7464.427182	0.001725	
7464.428871	0.003038	
7464.430407	0.004376	
7464.432111	-0.000011	
7464.433643	-0.003274	
7464.435362	-0.000015	
7464.436864	-0.001957	
7464.438626	-0.004712	
7464.440107	-0.001836	
7464.441862	0.001274	
7464.443353	-0.001337	
7464.445124	-0.000265	
7464.446602	0.001902	
7464.448359	0.000525	
7464.449849	-0.003456	
7464.451587	-0.002932	
7464.453090	-0.003552	
7464.454807	-0.005135	
7464.456337	-0.004757	
7464.458055	-0.000245	
7464.459595	-0.002162	
7464.461283	-0.001538	
7464.462827	-0.001034	
7464.464515	-0.000281	
7464.466085	-0.003858	
7464.467737	-0.004692	
7464.469304	-0.004761	
7464.470933	-0.007137	
7464.472539	-0.007524	
7464.474150	-0.003093	
7464.475789	-0.001780	
7464.477276	-0.004434	
7464.478899	-0.002324	
7464.480385	-0.001606	
7464.482007	-0.002690	
7464.483495	-0.006565	
7464.485109	-0.005792	
7464.486607	-0.006283	
7464.488190	-0.009047	
7464.489721	-0.007065	
7464.491259	-0.003878	
7464.492856	-0.004092	
7464.494339	-0.004745	
7464.495967	-0.003008	
7464.497521	-0.002388	
7464.499143	-0.006710	
7464.500648	-0.007762	
7464.502325	-0.006485	
7464.503809	-0.009345	
7464.505532	-0.010678	
7464.507007	-0.007733	
7464.508732	-0.004628	
7464.510212	-0.006908	
7464.511896	-0.005180	
7464.513376	-0.002666	
7464.515080	-0.006017	
7464.516561	-0.009172	
7464.518302	-0.008608	
7464.519808	-0.009349	
7464.521540	-0.012080	
7464.523055	-0.010316	
7464.524771	-0.006050	
7464.526299	-0.006191	
7464.528002	-0.006416	
7464.529548	-0.005663	
7464.531218	-0.006702	
7464.532783	-0.010984	
7464.534448	-0.011609	
7464.536035	-0.010006	
7464.537681	-0.013180	
7464.539278	-0.013450	
7464.540922	-0.008539	
7464.542515	-0.006952	
7464.544153	-0.010203	
7464.545787	-0.007987	
7464.547386	-0.007850	
7464.549044	-0.011258	
7464.550621	-0.013131	
7464.552285	-0.012439	
7464.553869	-0.013494	
7464.555539	-0.015468	
7464.557097	-0.012672	
7464.558829	-0.010247	
7464.560366	-0.012012	
7464.562099	-0.010702	
7464.563632	-0.010763	
7464.565354	-0.014308	
7464.566862	-0.017591	
7464.568620	-0.016693	
7464.570100	-0.016870	
7464.571888	-0.019230	
7464.573374	-0.017478	
7464.575152	-0.013559	
7464.576629	-0.014545	
7464.578411	-0.014610	
7464.579895	-0.013675	
7464.581635	-0.014767	
7464.583122	-0.019283	
7464.584877	-0.018674	
7464.586399	-0.019939	
7464.588139	-0.021970	
7464.589653	-0.021116	
7464.591356	-0.016495	
7464.592899	-0.020072	
7464.594591	-0.018755	
7464.596142	-0.016922	
7464.597821	-0.017357	
7464.599378	-0.023033	
7464.601020	-0.021958	
7464.602614	-0.021760	
7464.604241	-0.023517	
7464.605835	-0.024822	
7464.607456	-0.022872	
7464.609095	-0.020181	
7464.610691	-0.022820	
7464.612347	-0.020483	
7464.613820	-0.019081	
7464.615404	-0.022920	
7464.616886	-0.026924	
7464.618516	-0.024781	
7464.619989	-0.027335	
7464.621606	-0.028097	
7464.623105	-0.026642	
7464.624674	-0.023226	
7464.626221	-0.024093	
7464.627723	-0.024435	
7464.629389	-0.022094	
7464.630864	-0.022388	
7464.632498	-0.026981	
7464.634013	-0.028101	
7464.635691	-0.026969	
7464.637169	-0.029188	
7464.638886	-0.031497	
7464.640358	-0.028165	
7464.642051	-0.023795	
7464.643533	-0.025853	
7464.645248	-0.025297	
7464.646747	-0.023045	
7464.648455	-0.026832	
7464.649954	-0.030232	
7464.651632	-0.027907	
7464.653134	-0.028862	
7464.654876	-0.032230	
7464.656385	-0.031432	
7464.658107	-0.026429	
7464.659639	-0.027106	
7464.661325	-0.028342	
7464.662874	-0.025651	
7464.664599	-0.026079	
7464.666150	-0.030904	
7464.667843	-0.029237	
7464.669401	-0.028705	
7464.671074	-0.030832	
7464.672647	-0.029744	
7464.674294	-0.026328	
7464.675895	-0.025079	
7464.677526	-0.024753	
7464.679147	-0.023029	
7464.680779	-0.021833	
7464.682418	-0.024794	
7464.684015	-0.026070	
7464.685662	-0.024213	
7464.687260	-0.024898	
7464.688950	-0.025156	
7464.690522	-0.020834	
7464.692206	-0.017563	
7464.693758	-0.018082	
7464.695468	-0.015778	
7464.697011	-0.012696	
7464.698719	-0.015633	
7464.700266	-0.016954	
7464.702010	-0.013623	
7464.703511	-0.012704	
7464.705280	-0.013172	
7464.706763	-0.007895	
7464.708543	-0.003351	
7464.710025	-0.001945	
7464.711802	0.001129	
7464.713286	0.005149	
7464.715065	0.005532	
7464.716545	0.004980	
7464.718306	0.008932	
7464.719797	0.012307	
7464.721565	0.013105	
7464.723074	0.019474	
7464.724797	0.028034	
7464.726322	0.029363	
7464.728066	0.034346	
7464.729598	0.044252	
7464.731296	0.050564	
7464.732853	0.051068	
7464.734558	0.056160	
7464.736114	0.064232	
7464.737785	0.068083	
7464.739354	0.075065	
7464.741000	0.088725	
7464.742597	0.098497	
7464.744260	0.103637	
7464.745865	0.115811	
7464.747498	0.125676	
7464.749110	0.135167	
7464.750635	0.143377	
7464.752266	0.157834	
7464.753741	0.165790	
7464.755385	0.179583	
7464.756864	0.195201	
7464.758500	0.214988	
7464.759979	0.228717	
7464.761601	0.246711	
7464.763103	0.264601	
7464.764664	0.283385	
7464.766228	0.299801	
7464.767725	0.319439	
7464.769361	0.342521	
7464.770921	0.363388	
7464.772533	0.390961	
7464.774068	0.419272	
7464.775735	0.444143	
7464.777210	0.473848	
7464.778949	0.507380	
7464.780423	0.541774	
7464.782147	0.576570	
7464.783616	0.610259	
7464.785334	0.655139	
7464.786853	0.695128	
7464.788604	0.740088	
7464.790079	0.790140	
7464.791874	0.848575	
7464.793352	0.896532	
7464.795144	0.955374	
7464.796626	1.014803	
7464.798394	1.075840	
7464.799872	1.132233	
7464.801623	1.204255	
7464.803124	1.262819	
7464.804879	1.334837	
7464.806386	1.406440	
7464.808113	1.489831	
7464.809628	1.561789	
7464.811338	1.626334	
7464.812871	1.636466	
7464.814576	1.636683	
7464.816129	1.636526	
7464.817813	1.636699	
7464.819376	1.636587	
7464.821061	1.636603	
7464.822643	1.636462	
7464.824305	1.636784	
7464.825897	1.636574	
7464.827533	1.636748	
7464.829152	1.636542	
7464.830768	1.636724	
7464.832394	1.636558	
7464.834006	1.636764	
7464.835647	1.636663	
7464.837251	1.636744	
7464.838937	1.636538	
7464.840498	1.636752	
7464.842188	1.636514	
7464.843744	1.636719	
7464.845449	1.636667	
7464.847007	1.636772	
7464.848690	1.636671	
7464.850226	1.636800	
7464.851947	1.636683	
7464.853448	1.636651	
7464.855227	1.636623	
7464.856703	1.636764	
7464.858495	1.636719	
7464.859972	1.636784	
7464.861765	1.636679	
7464.863248	1.636695	
7464.865041	1.636691	
7464.866523	1.636768	
7464.868302	1.636740	
7464.869788	1.636631	
7464.871531	1.636663	
7464.873040	1.636631	
7464.874764	1.636860	
7464.876290	1.636667	
7464.878017	1.636711	
7464.879559	1.636615	
7464.881270	1.636744	
7464.882840	1.636667	
7464.884333	1.636615	
7464.885912	1.636679	
7464.887431	1.636598	
7464.889081	1.636663	
7464.890586	1.636571	
7464.892224	1.636659	
7464.893710	1.636566	
7464.895359	1.636627	
7464.896841	1.636582	
7464.898484	1.636590	
7464.899967	1.636586	
7464.901587	1.636550	
7464.903087	1.636591	
7464.904666	1.636651	
7464.906209	1.636522	
7464.907834	1.633267	
7464.909420	1.522549	
7464.911005	1.404793	
7464.912610	1.286384	
7464.914155	1.172822	
7464.915777	1.043509	
7464.917272	0.923687	
7464.918971	0.795175	
7464.920450	0.669145	
7464.922168	0.541915	
7464.923733	0.421645	
7464.925434	0.294544	
7464.926991	0.166930	
7464.928711	0.030310	
7464.930246	-0.099390	
7464.931974	-0.240623	
7464.933477	-0.367922	
7464.935236	-0.499092	
7464.936715	-0.625726	
7464.938480	-0.768788	
7464.939964	-0.892973	
7464.941759	-1.031998	
7464.943235	-1.161618	
7464.945027	-1.294802	
7464.946505	-1.420075	
7464.948246	-1.557356	
7464.949748	-1.617124	
7464.951499	-1.617672	
7464.953014	-1.617668	
7464.954744	-1.617607	
7464.956283	-1.617692	
7464.957981	-1.617676	
7464.959529	-1.617905	
7464.961241	-1.617716	
7464.962794	-1.617813	
7464.964481	-1.617712	
7464.966052	-1.617902	
7464.967714	-1.617841	
7464.969299	-1.617946	
7464.970950	-1.617732	
7464.972547	-1.617950	
7464.974195	-1.617877	
7464.975801	-1.618018	
7464.977421	-1.617934	
7464.979075	-1.618196	
7464.980672	-1.617994	
7464.982351	-1.618200	
7464.983935	-1.618067	
7464.985618	-1.618304	
7464.987199	-1.618240	
7464.988871	-1.618312	
7464.990437	-1.618147	
7464.992157	-1.618236	
7464.993700	-1.618204	
7464.995392	-1.618236	
7464.996927	-1.618111	
7464.998626	-1.618171	
7465.000122	-1.618216	
7465.001858	-1.618284	
7465.003350	-1.618147	
7465.005129	-1.618091	
7465.006626	-1.618018	
7465.008406	-1.617994	
7465.009881	-1.617910	
7465.011664	-1.617769	
7465.013147	-1.617970	
7465.014882	-1.617748	
7465.016385	-1.617752	
7465.018109	-1.617805	
7465.019645	-1.617926	
7465.021140	-1.617841	
7465.022735	-1.617893	
7465.024228	-1.617825	
7465.025860	-1.617849	
7465.027381	-1.617744	
7465.029014	-1.617825	
7465.030493	-1.617732	
7465.032133	-1.617781	
7465.033618	-1.617761	
7465.035254	-1.617752	
7465.036759	-1.617720	
7465.038383	-1.617704	
7465.039880	-1.617688	
7465.041480	-1.617595	
7465.042995	-1.617704	
7465.044634	-1.605784	
7465.046173	-1.531885	
7465.047802	-1.461442	
7465.049374	-1.396630	
7465.050959	-1.332604	
7465.052565	-1.267691	
7465.054104	-1.214707	
7465.055735	-1.156377	
7465.057212	-1.098188	
7465.058933	-1.038641	
7465.060506	-0.987111	
7465.062185	-0.931870	
7465.063759	-0.881581	
7465.065453	-0.833978	
