time (s)	det(V)
8497.696567	0.050174	
8497.698346	0.054375	
8497.699837	0.058399	
8497.701595	0.059781	
8497.703101	0.059121	
8497.704804	0.062037	
8497.706332	0.067101	
8497.708054	0.067096	
8497.709587	0.072366	
8497.711300	0.080112	
8497.712851	0.086283	
8497.714535	0.091706	
8497.716099	0.096105	
8497.717766	0.102888	
8497.719350	0.104294	
8497.721011	0.109910	
8497.722607	0.117716	
8497.724242	0.123304	
8497.725846	0.129217	
8497.727481	0.140033	
8497.729109	0.150974	
8497.730706	0.158652	
8497.732382	0.170520	
8497.733956	0.182053	
8497.735633	0.189703	
8497.737203	0.195527	
8497.738882	0.209518	
8497.740456	0.219875	
8497.742144	0.231915	
8497.743696	0.245096	
8497.745428	0.265516	
8497.746966	0.278039	
8497.748706	0.295297	
8497.750214	0.312216	
8497.751948	0.329630	
8497.753433	0.338726	
8497.754973	0.357373	
8497.756500	0.376850	
8497.758072	0.391284	
8497.759625	0.414596	
8497.761119	0.430781	
8497.762758	0.454947	
8497.764245	0.474859	
8497.765881	0.502699	
8497.767401	0.525129	
8497.769059	0.549919	
8497.770543	0.570032	
8497.772182	0.599818	
8497.773660	0.626002	
8497.775320	0.655578	
8497.776811	0.689242	
8497.778532	0.726053	
8497.780030	0.757776	
8497.781739	0.792235	
8497.783220	0.825577	
8497.784895	0.863205	
8497.786397	0.895247	
8497.788057	0.931087	
8497.789587	0.972280	
8497.791220	1.007854	
8497.792782	1.045946	
8497.794454	1.094854	
8497.796029	1.138114	
8497.797684	1.180464	
8497.799272	1.224320	
8497.800914	1.263169	
8497.802507	1.304556	
8497.804131	1.345170	
8497.805778	1.396003	
8497.807372	1.437708	
8497.809034	1.482954	
8497.810612	1.534690	
8497.812305	1.585153	
8497.813889	1.620465	
8497.815565	1.636353	
8497.817139	1.636603	
8497.818826	1.636599	
8497.820380	1.636534	
8497.822086	1.636607	
8497.823626	1.636591	
8497.825343	1.636567	
8497.826848	1.636546	
8497.828596	1.636538	
8497.830079	1.636482	
8497.831854	1.636619	
8497.833344	1.636595	
8497.835121	1.636627	
8497.836602	1.636675	
8497.838387	1.636699	
8497.839861	1.636575	
8497.841618	1.636695	
8497.843113	1.636526	
8497.844848	1.636599	
8497.846365	1.636542	
8497.848077	1.636607	
8497.849611	1.636550	
8497.851314	1.636607	
8497.852859	1.636482	
8497.854566	1.636780	
8497.856115	1.636542	
8497.857798	1.636655	
8497.859374	1.636578	
8497.861018	1.636711	
8497.862619	1.636534	
8497.864276	1.636856	
8497.865869	1.636647	
8497.867515	1.636760	
8497.869118	1.636558	
8497.870745	1.636776	
8497.872418	1.636667	
8497.874005	1.636776	
8497.875679	1.636514	
8497.877258	1.636784	
8497.878940	1.636566	
8497.880538	1.636615	
8497.882232	1.636421	
8497.883796	1.636695	
8497.885496	1.636558	
8497.887043	1.636728	
8497.888757	1.636542	
8497.890240	1.636570	
8497.891878	1.636595	
8497.893354	1.636441	
8497.894987	1.636687	
8497.896499	1.636522	
8497.898067	1.636631	
8497.899630	1.636514	
8497.901172	1.636574	
8497.902797	1.627845	
8497.904281	1.548383	
8497.905928	1.474225	
8497.907433	1.401172	
8497.909084	1.320585	
8497.910556	1.250174	
8497.912253	1.179143	
8497.913731	1.099011	
8497.915432	1.017011	
8497.916918	0.939776	
8497.918648	0.849042	
8497.920137	0.766703	
8497.921850	0.677564	
8497.923337	0.597457	
8497.925035	0.504842	
8497.926509	0.428513	
8497.928275	0.346904	
8497.929781	0.263340	
8497.931498	0.172344	
8497.933020	0.091077	
8497.934748	-0.005607	
8497.936283	-0.092393	
8497.937995	-0.182591	
8497.939536	-0.263967	
8497.941234	-0.354024	
8497.942789	-0.428910	
8497.944480	-0.510444	
8497.946049	-0.587429	
8497.947698	-0.670521	
8497.949295	-0.748171	
8497.950957	-0.825688	
8497.952556	-0.906810	
8497.954186	-0.984231	
8497.955780	-1.056402	
8497.957403	-1.130870	
8497.959084	-1.205321	
8497.960668	-1.261137	
8497.962340	-1.326070	
8497.963925	-1.393830	
8497.965613	-1.457957	
8497.967198	-1.516629	
8497.968880	-1.580358	
8497.970446	-1.615005	
8497.972151	-1.617595	
8497.973693	-1.617563	
8497.975409	-1.617716	
8497.976943	-1.617611	
8497.978672	-1.617712	
8497.980184	-1.617591	
8497.981925	-1.617712	
8497.983414	-1.617793	
8497.985179	-1.617761	
8497.986660	-1.617720	
8497.988445	-1.617736	
8497.989925	-1.617809	
8497.991722	-1.617748	
8497.993199	-1.617761	
8497.994949	-1.617777	
8497.996445	-1.617833	
8497.998204	-1.617644	
8497.999717	-1.617873	
8498.001463	-1.617636	
8498.002985	-1.617805	
8498.004697	-1.617716	
8498.006231	-1.617761	
8498.007949	-1.617648	
8498.009491	-1.617914	
8498.011193	-1.617632	
8498.012761	-1.617873	
8498.014427	-1.617640	
8498.016004	-1.617893	
8498.017672	-1.617688	
8498.019269	-1.617773	
8498.020919	-1.617696	
8498.022520	-1.617773	
8498.024041	-1.617801	
8498.025697	-1.617773	
8498.027174	-1.617821	
8498.028820	-1.617793	
8498.030291	-1.617809	
8498.031944	-1.617748	
8498.033418	-1.617817	
8498.035059	-1.617696	
8498.036555	-1.617885	
8498.038139	-1.617656	
8498.039690	-1.617817	
8498.041234	-1.617765	
8498.042800	-1.617809	
8498.044384	-1.617632	
8498.045986	-1.617692	
8498.047538	-1.617611	
8498.049157	-1.617764	
8498.050684	-1.617620	
8498.052367	-1.617773	
8498.053850	-1.617636	
8498.055543	-1.617793	
8498.057020	-1.613442	
8498.058744	-1.563958	
8498.060224	-1.514007	
8498.061936	-1.459830	
8498.063411	-1.416312	
8498.065175	-1.364327	
8498.066651	-1.316378	
8498.068419	-1.268058	
8498.069894	-1.231557	
8498.071668	-1.186005	
8498.073157	-1.144022	
8498.074922	-1.100891	
8498.076422	-1.059665	
8498.078164	-1.009947	
8498.079674	-0.971106	
8498.081392	-0.928926	
8498.082925	-0.889742	
8498.084625	-0.851199	
8498.086166	-0.820653	
8498.087850	-0.785626	
8498.089429	-0.751361	
8498.091114	-0.719691	
8498.092677	-0.689112	
8498.094340	-0.653550	
8498.095920	-0.623116	
8498.097570	-0.595969	
8498.099172	-0.567340	
8498.100797	-0.537989	
8498.102426	-0.518021	
8498.104051	-0.495809	
8498.105702	-0.470922	
8498.107304	-0.450019	
8498.108959	-0.430691	
8498.110548	-0.409490	
8498.112237	-0.390460	
8498.113800	-0.373682	
8498.115502	-0.354653	
8498.117045	-0.337298	
8498.118749	-0.322925	
8498.120301	-0.311666	
8498.122013	-0.295464	
8498.123537	-0.282324	
8498.125267	-0.272588	
8498.126747	-0.258633	
8498.128534	-0.241610	
8498.130015	-0.231918	
8498.131795	-0.220369	
8498.133275	-0.208916	
8498.135049	-0.199389	
8498.136526	-0.194817	
8498.138297	-0.186418	
8498.139796	-0.177471	
8498.141559	-0.171457	
8498.143061	-0.164270	
8498.144790	-0.151706	
8498.146310	-0.146235	
8498.148021	-0.139548	
8498.149556	-0.131036	
8498.151254	-0.124180	
8498.152813	-0.123270	
8498.154492	-0.120567	
8498.156061	-0.113445	
8498.157750	-0.110830	
8498.159361	-0.107241	
8498.160858	-0.100067	
8498.162488	-0.092240	
8498.164005	-0.089001	
8498.165649	-0.085319	
8498.167128	-0.078620	
8498.168789	-0.077363	
8498.170261	-0.077778	
8498.171922	-0.074507	
8498.173399	-0.072517	
8498.175044	-0.070825	
8498.176522	-0.066712	
8498.178118	-0.059783	
8498.179648	-0.056810	
8498.181286	-0.054776	
8498.182841	-0.050345	
8498.184459	-0.046128	
8498.186032	-0.047650	
8498.187610	-0.047582	
8498.189239	-0.044150	
8498.190787	-0.043259	
8498.192430	-0.042490	
8498.193921	-0.036754	
8498.195624	-0.030731	
8498.197213	-0.029474	
8498.198900	-0.026896	
8498.200454	-0.023432	
8498.202152	-0.024302	
8498.203700	-0.027142	
8498.205409	-0.023670	
8498.206954	-0.022816	
8498.208671	-0.021970	
8498.210206	-0.018948	
8498.211939	-0.013115	
8498.213420	-0.012749	
8498.215198	-0.010855	
8498.216677	-0.007270	
8498.218467	-0.006432	
8498.219951	-0.009861	
8498.221705	-0.008410	
8498.223179	-0.007520	
8498.224942	-0.007452	
8498.226437	-0.006787	
8498.228169	-0.000946	
8498.229681	0.001024	
8498.231400	0.001471	
8498.232920	0.004504	
8498.234634	0.006511	
8498.236179	0.003010	
8498.237844	0.001652	
8498.239400	0.004053	
8498.241071	0.002792	
8498.242657	0.002531	
8498.244310	0.006571	
8498.245890	0.012674	
8498.247524	0.009782	
8498.249126	0.011945	
8498.250737	0.013919	
8498.252412	0.012328	
8498.254000	0.008589	
8498.255650	0.010350	
8498.257243	0.009177	
8498.258898	0.006293	
8498.260478	0.010623	
8498.262149	0.016211	
8498.263716	0.013613	
8498.265428	0.016449	
8498.266972	0.017375	
8498.268686	0.016348	
8498.270211	0.009983	
8498.271938	0.011880	
8498.273426	0.012231	
8498.275202	0.010064	
8498.276688	0.009564	
8498.278469	0.015872	
8498.279950	0.016283	
8498.281757	0.015949	
8498.283238	0.016908	
8498.284984	0.016884	
8498.286471	0.012054	
8498.288208	0.011655	
8498.289713	0.011534	
8498.291456	0.009077	
8498.292992	0.009040	
8498.294490	0.012839	
8498.296092	0.014696	
8498.297579	0.013186	
8498.299234	0.015123	
8498.300737	0.015349	
8498.302400	0.011349	
8498.303901	0.008255	
8498.305534	0.008851	
8498.307035	0.009725	
8498.308659	0.005604	
8498.310142	0.007095	
8498.311773	0.013278	
8498.313251	0.012038	
8498.314948	0.011240	
8498.316433	0.014132	
8498.318110	0.013387	
8498.319618	0.009536	
8498.321244	0.006728	
8498.322810	0.008251	
8498.324388	0.004355	
8498.325974	0.003602	
8498.327527	0.008734	
8498.329131	0.011695	
8498.330657	0.009431	
8498.332333	0.011566	
8498.333932	0.013302	
8498.335602	0.010269	
8498.337197	0.005858	
8498.338864	0.006144	
8498.340418	0.005548	
8498.342113	0.003099	
8498.343643	0.005697	
8498.345339	0.012630	
8498.346867	0.010628	
8498.348607	0.011590	
8498.350108	0.013411	
8498.351870	0.012251	
8498.353360	0.006716	
8498.355144	0.007590	
8498.356630	0.007030	
8498.358423	0.003763	
8498.359904	0.003828	
8498.361672	0.011409	
8498.363148	0.010132	
8498.364911	0.010519	
8498.366421	0.012436	
8498.368173	0.012501	
8498.369677	0.007220	
8498.371415	0.006821	
8498.372931	0.007562	
8498.374631	0.004243	
8498.376172	0.004456	
8498.377846	0.008960	
8498.379409	0.011772	
8498.381079	0.010885	
8498.382664	0.012892	
8498.384340	0.012706	
8498.385915	0.007369	
8498.387557	0.006144	
8498.389156	0.008134	
8498.390790	0.005524	
8498.392419	0.003469	
8498.394022	0.008617	
8498.395675	0.011449	
8498.397269	0.009935	
8498.398923	0.011147	
8498.400519	0.012924	
8498.402195	0.010144	
8498.403774	0.005584	
8498.405474	0.006994	
8498.407017	0.005274	
8498.408717	0.002805	
8498.410253	0.005661	
8498.411964	0.009919	
8498.413464	0.008718	
8498.415200	0.009572	
8498.416687	0.010942	
8498.418447	0.010555	
8498.419926	0.004291	
8498.421705	0.004517	
8498.423183	0.003687	
8498.424954	0.000976	
8498.426465	0.000517	
8498.427962	0.005399	
8498.429533	0.006821	
8498.431032	0.004944	
8498.432668	0.007232	
8498.434152	0.009383	
8498.435773	0.003671	
8498.437293	0.000142	
8498.438931	0.002293	
8498.440406	0.000657	
8498.442024	-0.003012	
8498.443498	-0.000100	
8498.445118	0.004589	
8498.446596	0.003497	
8498.448225	0.003485	
8498.449735	0.005242	
8498.451384	0.005080	
8498.452915	0.001294	
8498.454536	-0.001550	
8498.456108	0.000029	
8498.457696	-0.002867	
8498.459292	-0.004132	
8498.460863	-0.001522	
8498.462480	0.003316	
8498.464020	0.001785	
8498.465666	0.001967	
8498.467259	0.002861	
8498.468937	-0.000188	
8498.470516	-0.003822	
8498.472200	-0.003661	
8498.473747	-0.003508	
8498.475451	-0.005510	
8498.477009	-0.003878	
8498.478690	0.001278	
8498.480236	-0.000112	
8498.481958	-0.000394	
8498.483460	0.002410	
8498.485193	-0.000515	
8498.486679	-0.004027	
8498.488457	-0.004217	
8498.489941	-0.003649	
8498.491701	-0.005587	
8498.493189	-0.006553	
8498.494955	-0.000913	
8498.496451	-0.000700	
8498.498210	-0.001034	
8498.499706	0.001012	
8498.501415	0.000992	
8498.502937	-0.002477	
8498.504660	-0.004974	
8498.506183	-0.003029	
8498.507873	-0.005087	
8498.509428	-0.005095	
8498.511108	-0.002021	
8498.512688	0.000508	
8498.514363	-0.000297	
8498.515946	-0.001373	
8498.517596	0.001532	
8498.519177	-0.001760	
8498.520807	-0.004169	
8498.522424	-0.003173	
8498.524043	-0.004708	
8498.525690	-0.006767	
8498.527303	-0.003564	
8498.528931	-0.000007	
8498.530523	-0.000853	
8498.532169	0.000351	
8498.533736	0.002079	
8498.535443	-0.000487	
8498.536988	-0.004370	
8498.538700	-0.003762	
8498.540229	-0.004322	
8498.541948	-0.006787	
8498.543460	-0.003919	
8498.545199	-0.000370	
8498.546690	-0.001691	
8498.548460	-0.001530	
8498.549939	0.000569	
8498.551708	0.000460	
8498.553182	-0.004350	
8498.554948	-0.005852	
8498.556435	-0.005006	
8498.558170	-0.007166	
8498.559676	-0.008499	
8498.561422	-0.002811	
8498.562945	-0.001969	
8498.564475	-0.003754	
8498.566076	-0.001747	
8498.567572	-0.000241	
8498.569231	-0.005530	
8498.570729	-0.007129	
8498.572373	-0.006706	
8498.573873	-0.008076	
8498.575499	-0.011117	
8498.576984	-0.008016	
8498.578614	-0.003882	
8498.580116	-0.005502	
8498.581746	-0.005421	
8498.583226	-0.003862	
8498.584911	-0.004664	
8498.586398	-0.008636	
8498.588058	-0.010005	
8498.589580	-0.010195	
8498.591205	-0.011875	
8498.592766	-0.012926	
8498.594364	-0.009212	
8498.595956	-0.006199	
8498.597517	-0.007971	
8498.599135	-0.006722	
8498.600749	-0.005679	
8498.602368	-0.009188	
8498.603973	-0.013430	
8498.605621	-0.011512	
8498.607232	-0.012853	
8498.608912	-0.014972	
8498.610499	-0.012390	
8498.612176	-0.008173	
8498.613727	-0.008587	
8498.615435	-0.008998	
8498.616996	-0.005317	
8498.618668	-0.008853	
8498.620188	-0.012277	
8498.621913	-0.012261	
8498.623408	-0.012116	
8498.625190	-0.014674	
8498.626672	-0.012177	
8498.628453	-0.007170	
8498.629930	-0.008221	
8498.631705	-0.008374	
8498.633181	-0.005582	
8498.634926	-0.004430	
8498.636423	-0.009659	
8498.638185	-0.009675	
8498.639688	-0.009059	
8498.641431	-0.010662	
8498.642946	-0.011564	
8498.644654	-0.005897	
8498.646185	-0.004483	
8498.647887	-0.004257	
8498.649440	-0.001747	
8498.651120	-0.000893	
8498.652682	-0.004450	
8498.654362	-0.005506	
8498.655945	-0.003169	
8498.657602	-0.004237	
8498.659185	-0.004672	
8498.660820	-0.001445	
8498.662432	0.003518	
8498.664042	0.003433	
8498.665672	0.004795	
8498.667266	0.008919	
8498.668944	0.007147	
8498.670520	0.003139	
8498.672168	0.006100	
8498.673741	0.004259	
8498.675450	0.003703	
8498.676995	0.008194	
8498.678704	0.013552	
8498.680267	0.014547	
8498.681977	0.017613	
8498.683521	0.020533	
8498.685262	0.020312	
8498.686795	0.017359	
8498.688541	0.018805	
8498.690023	0.020429	
8498.691801	0.020243	
8498.693280	0.021145	
8498.695054	0.027546	
8498.696545	0.030830	
8498.698035	0.029653	
8498.699621	0.033996	
8498.701166	0.037049	
8498.702774	0.033706	
8498.704255	0.034737	
8498.705912	0.037726	
8498.707402	0.038842	
8498.709043	0.043728	
8498.710566	0.046109	
8498.712194	0.052297	
8498.713669	0.052631	
8498.715302	0.055866	
8498.716782	0.062927	
8498.718494	0.062581	
8498.719990	0.061167	
8498.721694	0.065824	
8498.723186	0.067093	
8498.724884	0.068744	
8498.726377	0.071169	
8498.728030	0.079310	
8498.729545	0.083520	
8498.731198	0.086114	
8498.732746	0.091786	
8498.734444	0.097361	
8498.736021	0.097345	
8498.737689	0.099392	
8498.739271	0.107839	
8498.740936	0.108298	
8498.742511	0.111066	
8498.744157	0.122039	
8498.745758	0.131433	
8498.747399	0.136525	
8498.749025	0.144158	
8498.750636	0.153218	
8498.752303	0.156892	
8498.753888	0.161025	
8498.755571	0.173182	
8498.757152	0.179362	
8498.758808	0.185694	
8498.760382	0.197183	
8498.762099	0.211069	
8498.763650	0.223117	
8498.765354	0.233865	
8498.766891	0.248121	
8498.768607	0.258716	
8498.770113	0.267522	
8498.771869	0.279212	
8498.773367	0.295321	
8498.775150	0.309408	
8498.776627	0.325956	
8498.778425	0.347774	
8498.779908	0.362042	
8498.781686	0.381072	
8498.783161	0.401584	
8498.784940	0.421762	
8498.786422	0.431289	
8498.788165	0.451104	
8498.789675	0.474029	
8498.791425	0.497031	
8498.792939	0.518091	
8498.794657	0.549975	
8498.796191	0.577271	
8498.797904	0.604761	
8498.799433	0.632326	
8498.801130	0.664601	
8498.802703	0.689371	
8498.804382	0.720901	
8498.805942	0.751472	
8498.807610	0.781994	
8498.809188	0.815373	
8498.810838	0.855261	
8498.812433	0.895339	
8498.814051	0.929052	
8498.815668	0.971003	
8498.817263	1.009300	
8498.818948	1.050212	
8498.820548	1.083293	
8498.822216	1.127653	
8498.823803	1.167473	
8498.825472	1.208279	
8498.827039	1.247068	
8498.828753	1.294481	
8498.830227	1.335522	
8498.831798	1.379060	
8498.833279	1.421164	
8498.834920	1.467695	
8498.836408	1.504655	
8498.837992	1.547182	
8498.839526	1.589923	
8498.841071	1.623462	
8498.842695	1.636454	
8498.844180	1.636530	
8498.845811	1.636466	
8498.847324	1.636546	
8498.848976	1.636619	
8498.850453	1.636586	
8498.852191	1.636502	
8498.853667	1.636534	
8498.855373	1.636711	
8498.856849	1.636635	
8498.858563	1.636655	
8498.860053	1.636494	
8498.861762	1.636643	
8498.863252	1.636574	
8498.864964	1.636566	
8498.866442	1.636566	
8498.868124	1.636558	
8498.869635	1.636659	
8498.871349	1.636744	
8498.872873	1.636647	
8498.874583	1.636478	
8498.876114	1.636619	
8498.877822	1.636627	
8498.879385	1.636530	
8498.881074	1.636667	
8498.882645	1.636683	
8498.884327	1.636683	
8498.885909	1.636623	
8498.887580	1.636699	
8498.889161	1.636429	
8498.890791	1.636776	
8498.892414	1.636699	
8498.894039	1.636619	
8498.895660	1.636583	
8498.897276	1.636740	
8498.898917	1.636607	
8498.900517	1.636599	
8498.902198	1.636570	
8498.903773	1.636675	
8498.905467	1.636458	
8498.907024	1.636756	
8498.908734	1.636643	
8498.910303	1.636679	
8498.911998	1.636486	
8498.913565	1.636546	
8498.915274	1.636619	
8498.916794	1.636635	
8498.918545	1.636586	
8498.920050	1.636562	
8498.921806	1.636542	
8498.923288	1.636635	
8498.925051	1.636429	
8498.926534	1.636603	
8498.928322	1.636333	
8498.929796	1.596436	
8498.931568	1.518698	
8498.933055	1.455900	
8498.934791	1.385276	
8498.936295	1.314357	
8498.938031	1.239809	
8498.939554	1.174220	
8498.941279	1.091780	
8498.942825	1.017696	
8498.944541	0.940392	
8498.946075	0.868390	
8498.947765	0.782873	
8498.949329	0.710677	
8498.951002	0.626360	
8498.952568	0.544009	
8498.954226	0.456341	
8498.955819	0.383412	
8498.957457	0.297049	
8498.959070	0.210767	
8498.960713	0.131054	
8498.962324	0.048764	
8498.963946	-0.040145	
8498.965628	-0.127898	
8498.967106	-0.202511	
8498.968688	-0.285369	
8498.970161	-0.365327	
8498.971797	-0.440955	
8498.973280	-0.517832	
8498.974910	-0.600424	
8498.976395	-0.676024	
8498.977984	-0.748215	
8498.979522	-0.822067	
8498.981054	-0.895877	
8498.982667	-0.970353	
8498.984167	-1.042585	
8498.985804	-1.116122	
8498.987344	-1.190678	
8498.988999	-1.254382	
8498.990492	-1.320325	
8498.992195	-1.394193	
8498.993669	-1.458110	
8498.995386	-1.519582	
8498.996863	-1.578517	
8498.998560	-1.616081	
8499.000046	-1.617688	
8499.001745	-1.617696	
8499.003236	-1.617708	
8499.004951	-1.617636	
8499.006432	-1.617740	
8499.008204	-1.617704	
8499.009700	-1.617676	
8499.011431	-1.617644	
8499.012944	-1.617744	
8499.014653	-1.617720	
8499.016189	-1.617720	
8499.017877	-1.617684	
8499.019430	-1.617748	
8499.021124	-1.617644	
8499.022677	-1.617692	
8499.024358	-1.617664	
8499.025928	-1.617789	
8499.027582	-1.617765	
8499.029171	-1.617728	
8499.030825	-1.617567	
8499.032429	-1.617849	
8499.034062	-1.617648	
8499.035668	-1.617849	
8499.037291	-1.617756	
8499.038914	-1.617801	
8499.040505	-1.617595	
8499.042186	-1.617833	
8499.043762	-1.617612	
8499.045473	-1.617841	
8499.047026	-1.617632	
8499.048723	-1.617805	
8499.050291	-1.617636	
8499.051980	-1.617817	
8499.053528	-1.617628	
8499.055247	-1.617865	
8499.056763	-1.617668	
8499.058521	-1.617833	
8499.059999	-1.617660	
8499.061779	-1.617764	
8499.063261	-1.617636	
8499.065049	-1.617660	
8499.066527	-1.617720	
