time (s)	magX	magY	magZ
9891.557019	-10.261848	16.061317	-802.257751
9891.560260	-31.886635	2.911112	-803.835754
9891.563581	-53.043846	-11.934008	-802.140869
9891.566921	-75.837547	-25.844000	-798.225037
9891.570279	-96.819420	-40.221558	-792.614258
9891.573197	-117.275291	-53.780884	-785.717712
9891.576519	-137.438934	-66.989525	-774.963745
9891.579858	-156.433685	-79.613724	-764.151367
9891.583191	-175.136200	-92.179482	-751.118103
9891.586506	-192.085327	-103.517876	-735.454712
9891.589822	-208.216248	-114.973167	-719.499146
9891.592737	-223.178253	-125.142662	-701.848633
9891.596068	-237.380463	-134.786148	-683.496826
9891.599399	-250.180023	-143.377609	-663.859131
9891.602735	-261.927521	-150.975510	-642.409729
9891.606068	-271.454132	-158.573395	-620.960266
9891.609397	-280.630066	-165.294617	-598.575684
9891.612730	-287.701935	-170.379364	-576.132690
9891.616097	-294.656952	-174.645889	-553.338989
9891.619407	-300.501465	-179.087723	-529.785461
9891.622736	-304.943329	-182.419113	-507.517792
9891.626067	-308.683807	-185.399826	-484.256592
9891.629398	-311.021637	-187.094742	-461.755096
9891.632735	-311.898315	-188.672775	-439.604309
9891.636065	-312.716553	-189.549438	-417.921082
9891.639391	-312.482758	-189.315659	-397.056091
9891.642732	-311.722992	-189.081863	-376.015747
9891.646074	-309.443604	-187.796082	-355.735229
9891.649407	-307.398041	-186.744064	-336.156036
9891.652725	-303.482208	-185.049133	-317.687286
9891.656068	-299.917023	-183.120453	-299.919922
9891.659417	-295.592072	-180.431976	-281.451172
9891.662732	-291.208679	-177.801926	-265.261810
9891.666063	-286.357697	-175.464111	-249.364685
9891.669392	-281.156067	-172.366516	-234.227325
9891.672730	-275.428406	-169.619568	-219.908234
9891.676059	-270.285217	-165.703735	-206.524261
9891.679397	-264.732910	-162.197021	-193.315613
9891.682728	-259.122162	-159.040970	-181.275848
9891.687431	-246.848633	-151.267746	-158.774384
9891.690336	-241.062531	-148.345474	-147.669769
9891.693700	-234.984222	-144.780304	-137.850952
9891.696938	-228.905914	-140.864471	-128.558136
9891.700242	-223.353607	-137.533081	-120.083565
9891.703614	-217.333740	-133.617249	-111.375206
9891.706480	-211.430756	-130.811859	-103.601974
9891.709821	-205.820007	-127.188240	-97.231430
9891.713145	-201.027496	-123.681526	-90.334885
9891.716503	-195.708984	-120.759254	-84.081230
9891.719858	-190.916443	-118.362984	-77.067787
9891.722750	-185.948578	-114.564034	-72.216827
9891.726051	-181.272949	-111.992439	-66.898300
9891.729389	-176.188202	-108.485725	-62.164219
9891.732731	-171.571014	-105.914131	-58.014603
9891.736054	-167.129181	-103.576317	-53.631199
9891.739387	-162.804230	-100.361824	-49.481579
9891.742721	-158.245483	-97.848686	-45.156624
9891.746088	-154.271210	-95.627754	-41.182339
9891.749385	-150.180023	-92.880821	-38.260071
9891.752726	-145.796631	-90.367668	-34.636459
9891.756052	-141.822357	-87.737633	-32.006416
9891.759387	-138.666290	-85.224480	-29.084150
9891.762721	-134.458221	-82.945114	-26.804783
9891.766050	-130.483948	-80.607300	-24.291632
9891.769378	-127.503227	-78.620155	-19.732895
9891.772714	-124.054955	-76.633018	-17.804197
9891.776057	-120.898903	-74.762764	-15.992392
9891.779387	-117.976631	-72.600288	-13.596132
9891.782720	-115.112816	-71.139153	-12.018108
9891.786098	-112.015221	-68.976669	-10.440084
9891.789415	-108.976051	-67.632431	-8.160714
9891.792717	-106.346016	-65.937508	-7.050253
9891.796061	-103.832863	-63.716591	-5.472227
9891.799382	-101.670387	-62.489243	-4.478657
9891.802711	-99.507912	-61.437225	-2.666851
9891.806050	-97.403877	-59.976089	-1.965508
9891.809380	-94.540047	-58.573402	-0.504374
9891.812715	-92.611351	-57.112259	0.430752
9891.816051	-90.857994	-55.943359	1.424324
9891.820725	-86.591484	-53.722435	3.119240
9891.823585	-84.662788	-52.144409	4.346592
9891.826971	-82.208076	-51.559959	4.229700
9891.830319	-80.746956	-50.683273	5.164825
9891.833646	-79.578041	-49.280586	5.457052
9891.836891	-77.590904	-48.111679	5.340162
9891.839819	-75.486870	-47.527229	5.866171
9891.843140	-73.967285	-46.533653	6.392178
9891.846467	-72.856827	-45.949203	6.275288
9891.849804	-70.869690	-45.189415	7.151968
9891.853136	-69.876114	-44.429619	7.444195
9891.856039	-68.414978	-42.910042	8.145538
9891.859374	-67.129189	-42.559372	7.794867
9891.862706	-65.551155	-41.624245	9.197554
9891.866044	-64.849808	-40.922905	8.320875
9891.869369	-63.505569	-39.987778	10.366463
9891.872745	-62.336662	-38.994202	10.015793
9891.876080	-61.576874	-38.877312	9.489780
9891.879374	-60.583298	-38.117523	10.717136
9891.882710	-60.349518	-37.708405	10.541801
9891.886041	-59.122177	-37.357735	11.243145
9891.889372	-57.602592	-36.831726	11.827599
9891.892708	-56.901245	-36.481056	11.184700
9891.896040	-56.024567	-35.487480	10.950916
9891.899370	-55.030998	-34.961479	12.061378
9891.902704	-54.621880	-34.961479	11.827599
9891.906041	-53.569855	-33.851013	12.002934
9891.909366	-52.868515	-33.909462	11.827599
9891.912700	-52.342506	-33.266563	12.061378
9891.916038	-51.232048	-32.623657	12.996506
9891.919391	-51.173599	-31.980764	13.171841
9891.922705	-50.706032	-32.097656	13.464066
9891.926038	-49.654022	-32.039207	13.347176
9891.929366	-49.069565	-31.922316	12.178268
9891.932697	-48.368217	-31.337862	12.295158
9891.936036	-47.316208	-30.753408	12.762722
9891.939417	-46.731750	-30.578077	13.113396
9891.942707	-46.614861	-30.519629	12.528942
9891.946034	-46.439529	-29.993624	12.821167
9891.950639	-44.919945	-29.292280	13.464066
9891.953984	-45.095284	-29.233831	13.405621
9891.956926	-44.510826	-28.474043	13.054951
9891.960248	-43.517258	-28.064924	13.464066
9891.963644	-43.517258	-27.597361	14.106964
9891.966945	-43.225029	-27.071356	13.639404
9891.970216	-42.465248	-27.188246	13.230286
9891.973123	-42.465248	-27.363581	12.587387
9891.976451	-41.997681	-27.246691	13.113396
9891.979790	-41.413231	-27.363581	13.405621
9891.983125	-41.121002	-26.545347	13.580956
9891.986473	-41.588562	-26.603792	13.054951
9891.989358	-41.354782	-26.662237	12.821167
9891.992690	-40.887215	-26.779127	12.996506
9891.996026	-40.711884	-26.486902	11.886044
9891.999359	-40.419655	-26.194674	13.288731
9892.002692	-40.302765	-25.844000	12.295158
9892.006054	-40.010544	-25.668669	12.295158
9892.009361	-39.893646	-25.844000	12.353607
9892.012693	-39.718307	-25.025766	13.288731
9892.016028	-39.426086	-25.201105	12.704277
9892.019359	-39.075417	-25.668669	13.990074
9892.022698	-39.250748	-26.194674	13.288731
9892.026026	-39.484528	-25.960894	13.347176
9892.029361	-39.426086	-25.668669	13.113396
9892.032693	-38.724747	-25.142656	13.639404
9892.036023	-38.549400	-25.610220	14.106964
9892.039354	-38.607849	-25.610220	13.347176
9892.042690	-38.783188	-25.259546	13.522511
9892.046019	-38.958527	-25.201105	12.996506
9892.049382	-38.607849	-25.434889	13.639404
9892.052685	-39.016968	-25.201105	13.873184
9892.056022	-38.432510	-25.084215	14.282303
9892.059359	-39.309196	-25.142656	14.340748
9892.062692	-38.783188	-25.610220	13.873184
9892.066054	-38.666298	-25.493330	13.464066
9892.069362	-38.374069	-25.317995	13.756294
9892.072686	-39.016968	-24.791986	13.873184
9892.076022	-38.724747	-24.908876	13.873184
9892.079351	-38.432510	-25.142656	14.340748
9892.083970	-39.016968	-25.376440	13.990074
9892.086919	-39.192307	-24.908876	14.399193
9892.090226	-38.958527	-25.376440	13.756294
9892.093646	-39.367638	-25.084215	13.697849
9892.096941	-39.192307	-25.317995	14.223858
9892.100283	-39.016968	-25.434889	14.516083
9892.103529	-39.601418	-25.960894	14.399193
9892.106440	-39.718307	-25.960894	13.580956
9892.109769	-39.542976	-25.785559	14.399193
9892.113117	-39.835205	-26.077784	13.990074
9892.116434	-39.952095	-26.545347	14.165409
9892.119775	-40.127434	-26.253122	14.106964
9892.122684	-40.419655	-26.545347	14.223858
9892.126017	-41.004105	-26.428453	13.230286
9892.129349	-41.062553	-27.655809	12.996506
9892.132681	-41.004105	-28.064924	13.464066
9892.136054	-41.997681	-27.655809	13.464066
9892.139349	-41.763901	-27.889589	13.756294
9892.142683	-41.822342	-28.240263	13.580956
9892.146015	-41.997681	-28.707827	13.814739
9892.149350	-42.874359	-28.240263	13.171841
9892.152681	-42.991249	-28.707827	13.522511
9892.156012	-43.692596	-28.649378	12.879612
9892.159349	-44.043266	-29.759844	13.580956
9892.162682	-43.867935	-30.052065	13.931629
9892.166012	-44.627716	-29.759844	12.821167
9892.169347	-45.036842	-30.227404	13.464066
9892.172680	-45.738182	-30.461187	13.113396
9892.176017	-45.445953	-30.461187	13.171841
9892.179369	-46.147301	-30.753408	13.464066
9892.182672	-47.433098	-31.396311	13.464066
9892.186010	-47.433098	-31.980764	12.587387
9892.189342	-48.134438	-32.448326	12.762722
9892.192691	-48.894234	-32.389877	12.470497
9892.196009	-49.303345	-32.974335	12.236713
9892.199342	-50.063141	-33.266563	12.002934
9892.202678	-50.647598	-33.851013	12.178268
9892.206012	-52.167168	-33.675682	13.230286
9892.209336	-51.991837	-33.909462	12.412052
9892.212675	-52.400948	-34.435463	11.944489
9892.217305	-54.212753	-35.604370	11.593815
9892.220216	-55.030998	-35.312149	12.002934
9892.223555	-55.732338	-36.714836	11.476925
9892.226946	-56.609016	-36.948616	11.009361
9892.230268	-57.544144	-37.825294	11.476925
9892.233526	-58.771492	-38.468201	10.249573
9892.236428	-59.122177	-38.877312	10.483356
9892.239755	-60.758644	-39.637108	10.775581
9892.243098	-61.109306	-40.396889	10.074238
9892.246440	-62.336662	-41.098236	9.840454
9892.249764	-62.921112	-41.507355	10.424908
9892.253124	-64.849808	-42.267151	9.898903
9892.256003	-65.901833	-43.436058	9.372890
9892.259332	-67.713638	-43.962059	9.489780
9892.262664	-69.233223	-45.189415	8.846882
9892.266002	-69.876114	-45.715416	8.262428
9892.269349	-71.804817	-46.124542	7.561085
9892.272669	-73.032158	-47.118111	7.502640
9892.276004	-74.843971	-48.228569	6.742851
9892.279331	-76.305107	-49.514366	5.749279
9892.282665	-77.941582	-50.507935	5.515499
9892.286005	-79.928719	-51.793739	4.346592
9892.289330	-81.272957	-52.611977	3.937473
9892.292661	-82.850990	-53.839325	2.593229
9892.296028	-85.422585	-55.125122	2.417894
9892.299338	-87.175941	-56.586258	1.190542
9892.302666	-88.753975	-58.339615	0.781425
9892.305995	-90.974892	-59.216293	-0.036810
9892.309326	-93.429588	-60.326759	-0.738153
9892.312661	-95.124519	-61.729446	-2.725296
9892.316002	-97.170097	-63.190582	-3.309750
9892.319335	-100.092354	-65.177727	-3.952648
9892.322665	-101.611946	-66.405075	-5.822899
9892.325997	-104.183540	-68.392212	-6.524245
9892.329327	-107.164238	-70.204025	-8.277605
9892.332694	-109.794289	-71.665161	-9.797185
9892.335994	-112.365883	-73.009399	-11.375209
9892.339351	-115.755714	-75.054985	-13.128570
9892.342661	-117.918205	-77.626579	-14.648149
9892.345993	-120.782021	-80.198181	-16.576845
9892.350633	-127.211006	-83.763344	-20.784910
9892.353543	-130.425507	-86.101158	-23.590288
9892.356863	-133.815338	-89.549438	-26.571001
9892.360291	-137.263611	-91.653473	-28.967260
9892.363585	-141.062561	-94.517296	-32.064865
9892.366922	-144.744629	-96.913559	-34.811798
9892.369787	-148.368225	-98.783806	-38.435410
9892.373087	-152.517853	-101.589180	-42.292801
9892.376420	-156.550568	-104.979012	-45.857967
9892.379750	-160.700195	-107.959724	-49.715363
9892.383108	-165.668030	-111.057320	-54.274101
9892.386412	-169.876099	-114.213371	-59.300400
9892.389319	-174.668640	-117.427864	-63.859138
9892.392654	-178.467590	-121.051476	-69.352997
9892.395984	-183.669220	-124.616646	-75.080643
9892.399323	-188.578644	-128.064926	-81.626526
9892.402660	-194.189392	-131.863876	-88.523071
9892.405988	-198.105225	-135.779709	-95.244293
9892.409320	-203.540619	-140.221558	-102.257729
9892.412687	-208.566925	-143.728287	-110.615417
9892.415985	-214.528381	-147.702576	-118.914658
9892.419318	-219.905334	-151.150848	-128.324371
9892.422648	-224.288727	-155.125122	-137.734070
9892.426000	-229.548798	-159.566971	-148.312683
9892.429317	-235.276459	-164.008820	-159.241974
9892.432653	-240.770325	-167.457108	-170.229675
9892.435983	-246.439514	-171.548279	-182.386322
9892.439316	-250.939819	-175.405655	-194.718292
9892.442653	-256.083008	-179.613739	-209.271179
9892.445983	-261.109314	-183.529587	-222.947388
9892.449314	-265.901825	-187.562317	-237.441833
9892.452650	-270.226776	-190.718353	-252.579163
9892.455994	-274.610168	-193.991287	-268.184113
9892.459320	-279.168915	-197.673355	-285.250122
9892.462648	-282.617187	-200.712509	-303.134399
9892.465980	-285.481018	-203.576340	-321.252472
9892.469317	-288.520172	-206.323257	-340.013428
9892.472647	-291.033325	-208.544189	-359.417267
9892.475980	-292.494476	-210.239090	-379.347168
9892.479313	-294.014038	-212.109344	-400.095245
9892.483914	-294.130920	-214.096481	-443.111023
9892.486865	-293.020447	-214.330276	-465.904724
9892.490161	-291.208679	-213.979584	-488.698425
9892.493559	-287.760376	-212.869125	-512.719482
9892.496853	-283.727661	-211.934006	-534.987183
9892.500268	-279.110474	-208.661072	-557.897705
9892.503101	-272.856842	-205.271225	-581.100525
9892.506416	-264.966705	-201.764526	-603.894226
9892.509737	-256.784332	-197.673355	-626.161926
9892.513077	-246.497955	-192.121048	-648.312683
9892.516402	-235.101135	-186.101166	-669.762146
9892.519311	-222.944489	-178.795486	-689.633545
9892.522650	-209.385162	-170.087128	-708.277588
9892.525980	-194.773834	-161.437225	-726.863220
9892.529310	-178.759827	-152.144424	-743.578613
9892.532639	-161.985992	-141.741150	-757.254822
9892.535999	-143.751038	-130.344299	-771.106384
9892.539305	-124.171852	-119.181236	-782.152588
9892.542643	-104.534218	-106.264809	-791.620667
9892.545968	-83.786110	-93.523720	-799.803101
9892.549307	-62.979561	-80.022842	-805.238464
9892.552634	-41.062553	-66.229744	-808.277588
9892.555970	-20.080673	-52.319748	-809.446533
9892.559312	2.479233	-38.175972	-807.985413
9892.562636	24.980696	-24.090643	-804.011108
9892.565979	46.196358	-10.239096	-798.634155
9892.569304	67.938026	3.787792	-790.977844
9892.572636	88.744576	16.762661	-781.860291
9892.575974	108.732887	30.205091	-769.762146
9892.579344	128.019852	44.115086	-757.547058
9892.582639	146.839264	55.628822	-742.409729
9892.585964	164.255981	67.902344	-726.980103
9892.589301	180.503784	78.773178	-710.206299
9892.592637	195.874908	89.351791	-691.445374
9892.595966	210.544678	98.819939	-671.866211
9892.599305	222.642883	107.820526	-651.644104
9892.602635	235.091736	116.061317	-630.837524
9892.605965	245.436554	123.542320	-609.621887
9892.609300	254.320251	130.205093	-586.828186
9892.612635	262.444153	136.341843	-565.846313
9892.616886	275.477478	145.167099	-520.901794
9892.620216	279.334869	149.375168	-498.751007
9892.623518	283.367615	153.115677	-476.775574
9892.626820	286.406738	155.862595	-455.735229
9892.630175	287.984802	157.908188	-434.519562
9892.633503	288.627686	158.901749	-414.180603
9892.636386	288.569244	159.427765	-393.549377
9892.639741	288.043243	160.129105	-373.736389
9892.643081	286.465210	159.544662	-354.332550
9892.646437	284.711853	159.018646	-335.630005
9892.649716	281.906494	159.310883	-318.739319
9892.652631	279.159546	157.206833	-300.621246
9892.655964	275.769714	156.096375	-284.198120
9892.659297	271.620087	154.401459	-268.943878
9892.662629	266.769104	152.472778	-253.163635
9892.665960	261.918152	149.550507	-238.844513
9892.669294	257.242523	147.329575	-224.992981
9892.672634	251.807098	144.816422	-210.907654
9892.675956	246.196350	141.835724	-198.575684
9892.679291	240.877838	139.614792	-185.951477
9892.682626	235.559296	136.108063	-174.262421
9892.685956	228.779633	133.185806	-163.391571
9892.689293	223.870239	130.731094	-153.046753
9892.692625	217.149017	127.575050	-143.637054
9892.695956	212.298065	124.302116	-134.110443
9892.699294	206.453522	121.379845	-125.109871
9892.702622	200.433655	117.990013	-117.395081
9892.705956	195.173584	114.892410	-109.154289
9892.709348	189.387482	111.736359	-101.322609
9892.712625	183.542938	109.164764	-94.835167
9892.715963	178.341309	106.242500	-88.756859
9892.719291	173.139664	103.495567	-81.918747
9892.722617	167.236679	101.274643	-75.840439
9892.725958	162.385712	98.001701	-71.106354
9892.729291	158.586761	95.546997	-66.372284
9892.732619	153.034454	93.150734	-60.703087
9892.735956	148.884857	90.754478	-56.378132
9892.739289	144.209229	87.890656	-52.696075
9892.742620	140.234924	84.909943	-48.780235
9892.747296	131.701904	80.409653	-40.890114
9892.750165	128.019852	78.364059	-37.675617
9892.753655	124.279350	76.201584	-34.578014
9892.756878	120.538849	74.272888	-31.363520
9892.760161	117.032135	71.818184	-28.558144
9892.763478	113.759186	70.240158	-26.687891
9892.766379	110.544693	68.136124	-23.590288
9892.769707	107.330200	65.739868	-20.492683
9892.773040	104.057259	64.220291	-17.745752
9892.776372	100.725876	62.525372	-16.343063
9892.779720	98.154282	60.304451	-14.239031
9892.783063	95.173569	59.077095	-12.485671
9892.785947	92.309738	57.557518	-11.492099
9892.789289	89.621262	55.804157	-9.504957
9892.792614	86.815880	54.050797	-7.576262
9892.795981	84.594955	52.238991	-6.641136
9892.799286	81.964912	51.128529	-5.355337
9892.802634	80.562225	49.725838	-4.186430
9892.805951	77.873741	49.024498	-3.017523
9892.809283	75.652817	47.446472	-2.023952
9892.812613	73.607231	45.810001	-0.621264
9892.815947	72.087646	44.290421	-0.153700
9892.819281	70.042061	43.296852	0.606089
9892.822614	67.938026	42.712399	1.132097
9892.825949	66.360008	41.660381	2.242558
9892.829279	64.723534	40.316139	3.586802
9892.832609	62.911728	39.264122	4.112810
9892.835945	61.216812	38.212105	4.989491
9892.839299	59.171227	37.101643	5.632389
9892.842607	57.710094	36.575634	6.158398
9892.845943	56.774967	35.582066	5.924616
9892.849278	55.547615	34.530048	7.502640
9892.852606	53.677364	33.828705	7.677975
9892.855951	51.982449	33.244251	7.619530
9892.859274	50.696651	32.776688	7.853312
9892.862605	49.410854	31.549335	7.385750
9892.865942	47.774384	29.854420	8.963774
9892.869274	47.540600	29.269966	8.729992
9892.872611	45.962578	28.743958	9.606672
9892.875944	44.852116	28.159504	9.431335
9892.880561	42.981865	26.523035	10.600246
9892.883520	42.280518	25.997026	10.308018
9892.886810	41.111610	25.529463	10.600246
9892.890222	40.702496	25.061901	10.717136
9892.893536	39.767368	25.295681	10.249573
9892.896795	38.949135	24.068329	11.126255
9892.899695	38.481571	23.834549	10.308018
9892.903035	37.721783	22.957869	10.834026
9892.906355	36.786655	22.782532	10.834026
9892.909696	36.085312	22.548750	11.652260
9892.913026	35.500858	21.847406	11.360035
9892.915936	34.331951	21.204508	11.301590
9892.919275	33.864388	21.087616	12.061378
9892.922608	33.396828	20.503162	11.652260
9892.925935	33.104599	19.509592	11.827599
9892.929268	32.052582	19.509592	11.944489
9892.932623	31.585020	19.392700	12.353607
9892.935941	30.825230	18.691357	12.470497
9892.939290	30.649895	18.632912	12.061378
9892.942601	29.831659	18.399132	11.944489
9892.945950	30.065441	18.106903	12.178268
9892.949270	29.539433	18.223793	12.412052
9892.952599	29.071871	17.464005	12.587387
9892.955930	28.838089	17.113333	12.645832
9892.959268	28.370525	16.996441	12.821167
9892.962600	28.136744	16.236652	13.230286
9892.965935	27.552290	16.295097	12.645832
9892.969268	27.143173	16.236652	13.639404
9892.972594	26.792501	15.827536	12.938057
9892.975956	26.558720	16.061317	12.645832
9892.979264	26.149601	15.535309	13.113396
9892.982595	25.857376	15.301527	12.879612
9892.985929	25.156031	15.243082	13.873184
9892.989273	24.863804	14.717073	12.645832
9892.992596	25.039141	14.483292	12.587387
9892.995930	24.863804	14.483292	12.528942
9892.999265	23.987125	14.191065	12.645832
9893.002610	23.987125	13.723501	12.295158
9893.005923	23.694899	13.781946	12.470497
