time (s)	magX	magY	magZ
3914.303857	58.820557	37.744541	-7.400925
3914.307189	60.398579	38.621223	-7.284035
3914.310529	61.976604	39.381012	-7.693151
3914.313851	62.502613	40.433029	-6.991808
3914.317189	63.963745	41.017483	-6.641136
3914.320551	65.074203	42.127945	-6.290463
3914.323858	67.061348	43.179962	-5.881346
3914.327194	68.171814	44.115086	-5.413782
3914.330526	69.574501	45.108658	-4.653994
3914.333860	71.094078	46.277565	-4.244875
3914.337189	73.081223	46.628235	-3.368195
3914.340522	74.776138	48.323151	-2.433071
3914.343858	76.120377	49.492058	-1.907063
3914.347183	78.165970	50.544075	-0.913490
3914.350514	80.620674	51.654537	-0.562819
3914.353856	82.432480	52.589661	0.080080
3914.357185	84.185837	54.752140	1.248987
3914.360520	86.289871	56.330166	1.658104
3914.363870	88.393906	57.031509	2.885458
3914.368150	91.842178	59.836884	4.229700
3914.371443	93.946213	61.648689	5.281717
3914.374777	95.933350	63.518944	5.515499
3914.378049	98.154282	64.980080	6.801296
3914.381364	100.784317	66.441208	7.035076
3914.384700	102.479233	68.545242	8.379320
3914.387614	105.050827	70.649277	9.606672
3914.390939	107.856209	72.519531	10.600246
3914.394294	109.726456	74.915787	11.886044
3914.397635	113.057846	76.727592	12.645832
3914.400957	115.746323	78.247169	13.873184
3914.403846	118.142586	80.584984	16.503223
3914.407201	120.538849	82.630577	17.146122
3914.410514	123.227333	85.143723	18.841042
3914.413849	126.675613	87.364647	20.360619
3914.417181	129.890106	90.286919	22.055534
3914.420524	132.987701	92.274055	24.860909
3914.423848	136.494431	95.371666	27.140278
3914.427182	140.468719	98.293930	30.471661
3914.430514	144.910553	101.040863	32.867924
3914.433847	148.534180	103.787796	35.614857
3914.437196	153.092911	106.768509	39.822922
3914.440509	157.184082	110.450562	43.329643
3914.443844	160.924591	113.548164	47.479263
3914.447174	165.950897	116.937996	51.570435
3914.450507	170.918747	120.620056	56.129173
3914.453843	176.938614	124.535896	60.746361
3914.457174	181.731140	128.042618	65.655762
3914.460510	186.874329	131.549332	72.201653
3914.463850	192.251282	135.991180	77.403282
3914.467175	197.745178	140.257690	84.124496
3914.470509	203.765045	144.173538	91.663948
3914.473886	208.849792	147.914032	98.969620
3914.477186	214.635864	152.589661	107.327309
3914.480533	219.895966	156.973053	114.048515
3914.483842	225.389801	162.116257	123.282890
3914.487170	231.000549	166.090530	132.341919
3914.490500	236.786652	170.824615	142.043854
3914.493843	242.163635	175.324890	151.453552
3914.497170	247.423706	180.000534	161.798370
3914.501796	257.359436	189.527115	182.955597
3914.504713	262.385712	194.904083	195.053772
3914.508042	267.645813	199.053711	207.210419
3914.511435	272.613678	204.430695	219.250153
3914.514787	276.880157	209.223206	232.692596
3914.518062	280.679138	215.710648	245.725922
3914.521349	284.711853	220.210937	260.454132
3914.524283	287.984802	225.120346	275.123932
3914.527599	291.842163	230.497314	290.378174
3914.530926	294.472198	235.114487	306.509094
3914.534263	297.102264	239.965454	323.575104
3914.537593	299.147827	245.400864	341.868530
3914.540495	300.608978	249.082932	359.343658
3914.543831	302.070099	252.998764	377.695526
3914.547171	302.713013	256.973083	398.326691
3914.550500	302.537689	260.772003	419.483917
3914.553834	301.836334	264.220276	439.530670
3914.557178	300.901215	266.733429	463.025726
3914.560538	298.680267	268.194580	485.001190
3914.563832	295.115112	270.181732	508.145538
3914.567171	291.783722	271.175293	531.815918
3914.570501	287.049683	271.642853	555.895386
3914.573835	280.503784	272.051971	580.617737
3914.577162	273.782562	270.532379	605.690796
3914.580498	264.898865	268.428345	630.880798
3914.583834	255.430725	266.090546	656.129150
3914.587161	243.683197	262.174713	680.793091
3914.590498	230.942139	258.025085	704.288147
3914.593828	217.441254	251.479187	728.542969
3914.597167	202.303894	245.167099	751.219727
3914.600500	185.062531	237.452301	773.136780
3914.603854	167.119797	228.919296	794.177063
3914.607164	146.956146	219.568024	813.171875
3914.610499	127.318512	209.106308	831.757446
3914.613827	105.343056	198.352371	846.777893
3914.617164	83.659828	186.780197	861.155396
3914.620493	60.573914	174.565109	873.779663
3914.623879	35.851532	161.882477	883.423157
3914.627156	12.473392	148.673828	892.073059
3914.630496	-12.073662	135.114502	897.859070
3914.633834	-36.386925	122.081192	902.534790
3914.638443	-85.130348	94.845657	902.593201
3914.641358	-109.209846	81.578560	898.618896
3914.644698	-131.652863	68.311462	894.527710
3914.648052	-154.855652	54.167686	888.566284
3914.651419	-175.837555	41.485046	879.098206
3914.654751	-196.936310	27.750387	868.402649
3914.657588	-216.983063	15.418418	856.187622
3914.660911	-236.386902	3.086449	841.926941
3914.664251	-253.686737	-8.485731	825.796021
3914.667587	-270.986572	-19.882578	808.729919
3914.670931	-286.766815	-31.162531	790.904114
3914.673822	-301.202820	-41.858025	772.201599
3914.677154	-314.703705	-51.852180	751.804199
3914.680490	-326.684998	-61.787895	730.588501
3914.683823	-337.146698	-70.671585	709.255981
3914.687157	-346.731750	-79.029274	687.748108
3914.690488	-354.972534	-87.562294	664.253052
3914.693820	-361.752197	-95.510857	641.400879
3914.697151	-368.181213	-102.816521	616.970764
3914.700489	-372.506165	-109.011742	593.943298
3914.703851	-376.129730	-115.148506	570.214478
3914.707195	-378.292236	-120.233238	545.959656
3914.710490	-380.337830	-125.376442	521.529541
3914.713822	-380.746948	-129.350739	498.852753
3914.717150	-380.045563	-133.441895	476.409698
3914.720514	-378.584442	-136.013489	452.739349
3914.723820	-376.831116	-139.929337	429.945679
3914.727146	-373.324371	-141.682693	408.028687
3914.730490	-369.817657	-142.968506	387.455902
3914.733835	-365.142029	-143.494507	367.584473
3914.737146	-359.823486	-144.488068	347.128601
3914.740480	-354.738770	-144.312744	328.133881
3914.743815	-349.011108	-144.312744	310.366455
3914.747150	-342.406799	-143.377609	293.358887
3914.750477	-336.386902	-142.033371	276.000580
3914.753816	-329.841034	-140.922897	260.629486
3914.757151	-322.944489	-139.403336	246.251923
3914.760482	-316.632385	-137.182404	231.465240
3914.763836	-309.209808	-134.844589	218.315033
3914.767143	-302.079498	-132.915909	206.918182
3914.771828	-287.877258	-128.064926	183.189392
3914.774708	-280.571594	-125.551781	172.552307
3914.778006	-273.908813	-122.629509	163.084167
3914.781329	-266.778503	-120.408592	153.557587
3914.784682	-260.057281	-117.252525	144.673889
3914.788030	-254.271210	-115.616066	136.433105
3914.790924	-247.666870	-112.460014	129.185883
3914.794274	-240.770325	-109.654640	121.997093
3914.797593	-235.510223	-107.375267	114.983650
3914.800907	-228.438354	-104.686775	108.262428
3914.804229	-223.236725	-102.173637	102.125671
3914.807588	-217.859741	-99.309807	96.339577
3914.810477	-211.489197	-97.205772	89.384583
3914.813805	-206.872009	-94.984856	84.825844
3914.817143	-201.495056	-93.056160	79.390419
3914.820473	-195.825836	-90.776794	75.007027
3914.823810	-190.741119	-88.322083	70.740509
3914.827143	-185.714783	-86.510277	65.947998
3914.830474	-180.630066	-84.230904	61.973709
3914.833806	-176.421997	-82.945114	58.525436
3914.837163	-171.687927	-80.548851	55.544716
3914.840473	-167.596741	-78.737045	50.635315
3914.843802	-163.447113	-77.159012	47.303925
3914.847137	-158.829926	-74.821205	44.264771
3914.850469	-154.388092	-73.710747	40.816490
3914.853801	-150.706024	-71.548264	38.478676
3914.857172	-146.088867	-70.204025	34.855064
3914.860475	-142.523682	-68.801338	31.465237
3914.863804	-138.140289	-68.392212	29.361202
3914.867134	-134.750458	-65.469948	26.088261
3914.870471	-131.360626	-64.184151	24.627129
3914.873804	-127.853905	-62.839912	22.523098
3914.877132	-124.580956	-61.554115	20.360619
3914.880494	-121.191139	-60.560539	18.607258
3914.883800	-117.859749	-58.690292	17.321457
3914.887135	-115.814171	-58.047386	15.684990
3914.890463	-112.482780	-56.410919	13.931629
3914.893809	-109.677406	-55.242012	12.587387
3914.897137	-107.865593	-54.423775	11.067806
3914.900467	-104.826424	-53.021088	10.541801
3914.903797	-102.605507	-52.144409	9.080664
3914.908115	-98.105217	-50.157265	8.262428
3914.911408	-96.176521	-49.105247	6.801296
3914.914769	-94.306267	-47.877899	5.983061
3914.917984	-92.085335	-47.001213	6.099951
3914.921311	-90.215096	-46.182983	5.047935
3914.924685	-88.987755	-45.481636	5.749279
3914.927557	-87.409721	-44.604958	4.054365
3914.930889	-85.890144	-43.903618	3.703693
3914.934241	-84.429008	-43.143822	2.943903
3914.937581	-83.318550	-41.916466	2.885458
3914.940942	-81.798958	-41.624245	2.417894
3914.943841	-80.513176	-40.572227	1.599659
3914.947130	-78.993584	-40.221558	1.541214
3914.950463	-77.766228	-39.169540	1.365877
3914.953795	-76.188210	-39.286430	0.956760
3914.957127	-75.603767	-38.292862	0.722979
3914.960455	-74.084183	-37.942184	0.372307
3914.963796	-72.564598	-38.175972	-0.621264
3914.967155	-72.038597	-37.123955	-1.381052
3914.970463	-70.869690	-36.773277	-0.796598
3914.973791	-69.759216	-36.247276	-1.907063
3914.977121	-68.005867	-35.955048	-2.140844
3914.980458	-67.187622	-34.903030	-3.017523
3914.983788	-65.609604	-34.669250	-2.491516
3914.987124	-64.206917	-34.026352	-2.374624
3914.990459	-63.564018	-33.851013	-2.900633
3914.993792	-62.219765	-33.091232	-3.309750
3914.997122	-61.810654	-32.798996	-3.660421
3915.000454	-60.875526	-32.565216	-4.069540
3915.003784	-59.063728	-32.097656	-4.361767
3915.007117	-58.479263	-31.513201	-4.478657
3915.010463	-58.011703	-31.104082	-4.361767
3915.013786	-57.251923	-31.104082	-4.244875
3915.017116	-56.667465	-30.928747	-4.946220
3915.020460	-55.498558	-30.694967	-4.537102
3915.023791	-54.680313	-29.759844	-5.063110
3915.027121	-54.446533	-30.168955	-4.595547
3915.030457	-53.920540	-29.000048	-4.478657
3915.033788	-53.336075	-29.058496	-4.887774
3915.037116	-52.810066	-28.766268	-4.712439
3915.041745	-51.524277	-28.357153	-4.770884
3915.044662	-50.764481	-28.064924	-5.238445
3915.048073	-50.355370	-27.538919	-5.004665
3915.051368	-50.121590	-26.837576	-5.180000
3915.054723	-50.004692	-26.720686	-4.712439
3915.057968	-49.829353	-27.246691	-5.589119
3915.061295	-49.770912	-26.954466	-5.413782
3915.064204	-49.244911	-26.662237	-4.537102
3915.067541	-49.011131	-26.311563	-4.420212
3915.070868	-49.069565	-26.194674	-3.894203
3915.074222	-49.186462	-26.837576	-5.063110
3915.077572	-49.128014	-26.077784	-5.413782
3915.080448	-49.069565	-26.662237	-4.712439
3915.083775	-48.251335	-26.603792	-4.420212
3915.087117	-48.368217	-25.551779	-4.069540
3915.090448	-47.783775	-25.493330	-4.653994
3915.093786	-47.725327	-25.317995	-4.186430
3915.097134	-47.900658	-25.317995	-4.946220
3915.100442	-47.140877	-25.668669	-5.121555
3915.103783	-47.023979	-25.434889	-5.121555
3915.107107	-47.082428	-24.733541	-4.303322
3915.110451	-46.497971	-25.142656	-5.063110
3915.113774	-46.614861	-25.376440	-4.770884
3915.117113	-46.264191	-25.084215	-5.296892
3915.120444	-46.848648	-25.084215	-4.420212
3915.123773	-46.556419	-24.791986	-4.653994
3915.127112	-45.796623	-24.675097	-5.296892
3915.130438	-45.270622	-24.558203	-6.056681
3915.133798	-46.030403	-24.850435	-5.296892
3915.137109	-45.796623	-24.441313	-4.946220
3915.140445	-45.796623	-24.675097	-4.829329
3915.143779	-45.679733	-24.850435	-5.355337
3915.147111	-45.387512	-24.850435	-5.413782
3915.150447	-45.738182	-25.025766	-5.764454
3915.153778	-45.212173	-24.791986	-5.413782
3915.157110	-45.036842	-25.376440	-5.589119
3915.160441	-44.919945	-24.967325	-5.180000
3915.163776	-45.036842	-24.967325	-5.939791
3915.167109	-45.504402	-24.908876	-5.764454
3915.170442	-45.036842	-25.142656	-4.946220
3915.175065	-44.919945	-25.142656	-5.881346
3915.178004	-45.796623	-24.967325	-5.647564
3915.181378	-45.913513	-24.967325	-5.998236
3915.184696	-45.679733	-25.201105	-5.296892
3915.188029	-46.497971	-25.376440	-5.238445
3915.191285	-47.023979	-25.668669	-5.121555
3915.194621	-46.497971	-25.727110	-5.355337
3915.197532	-46.790199	-26.136232	-4.595547
3915.200859	-47.082428	-26.545347	-3.718868
3915.204191	-48.134438	-26.545347	-4.186430
3915.207526	-47.842224	-26.837576	-4.186430
3915.210907	-47.608437	-26.545347	-3.660421
3915.213764	-48.192886	-27.714251	-3.952648
3915.217104	-48.952682	-27.305140	-4.069540
3915.220454	-49.537125	-27.538919	-4.127985
3915.223769	-49.712471	-27.597361	-4.303322
3915.227109	-49.946251	-27.305140	-4.244875
3915.230435	-50.180031	-28.006483	-3.777313
3915.233760	-50.706032	-28.474043	-3.660421
3915.237099	-51.874939	-27.889589	-3.543531
3915.240437	-51.290489	-28.766268	-2.959078
3915.243767	-52.225616	-29.175390	-3.718868
3915.247102	-52.225616	-29.642950	-4.127985
3915.250430	-52.926964	-29.350721	-3.192860
3915.253760	-53.452972	-29.818285	-2.842188
3915.257094	-53.862091	-29.818285	-3.017523
3915.260433	-53.862091	-29.993624	-3.660421
3915.263778	-54.621880	-30.753408	-3.251305
3915.267100	-55.264778	-31.045641	-3.368195
3915.270440	-55.557007	-31.220972	-3.543531
3915.273762	-56.024567	-31.688536	-2.783743
3915.277095	-56.258347	-32.331436	-2.374624
3915.280426	-56.842796	-32.506767	-3.485086
3915.283761	-57.368805	-33.325005	-2.082397
3915.287091	-58.362381	-33.383453	-2.374624
3915.290437	-58.946831	-34.026352	-1.439499
3915.293764	-60.115738	-34.727699	-1.556389
3915.297093	-60.524864	-34.903030	-2.374624
3915.300426	-61.167755	-35.195259	-2.257734
3915.303764	-61.927551	-35.955048	-1.614834
3915.307130	-62.862679	-35.955048	-1.381052
3915.311732	-64.908257	-37.533073	-0.329037
3915.314640	-65.609604	-38.175972	0.664534
3915.317965	-67.187622	-38.059074	0.430752
3915.321351	-68.356529	-39.111092	1.132097
3915.324675	-69.700783	-39.753998	1.190542
3915.327594	-71.103470	-40.689117	1.774996
3915.330888	-71.980148	-41.156685	2.242558
3915.334179	-73.382835	-41.916466	2.768566
3915.337514	-75.253090	-42.384041	3.586802
3915.340849	-76.363548	-43.377609	4.054365
3915.344190	-77.883125	-44.546516	4.697264
3915.347512	-79.052040	-45.130966	4.463482
3915.350458	-80.396278	-46.475212	5.749279
3915.353754	-82.266533	-46.708992	6.684404
3915.357085	-84.019890	-47.702560	7.677975
3915.360416	-85.831688	-48.579247	7.911757
3915.363751	-87.701942	-49.455917	8.554655
3915.367081	-89.689095	-50.449493	10.249573
3915.370417	-90.974892	-52.144409	10.424908
3915.373753	-92.611351	-53.196426	10.717136
3915.377089	-94.890724	-54.482224	11.827599
3915.380426	-96.936317	-54.891342	12.762722
3915.383751	-98.222099	-56.527809	13.580956
3915.387085	-100.501488	-57.229156	14.749863
3915.390419	-102.663963	-58.807182	15.626545
3915.393783	-104.475761	-59.917641	15.977215
3915.397076	-106.404457	-61.320335	16.795452
3915.400430	-108.800713	-62.898354	18.841042
3915.403747	-110.963188	-64.476379	20.126839
3915.407082	-112.716560	-66.229744	20.594402
3915.410410	-115.697273	-67.632431	21.412636
3915.413745	-117.859749	-69.502678	22.932213
3915.417084	-120.256004	-70.905365	24.627129
3915.420412	-123.353615	-72.717171	25.912926
3915.423752	-125.691429	-74.528984	28.192299
3915.427080	-129.198151	-76.048553	30.120991
3915.430411	-131.945068	-78.094139	31.348347
3915.433744	-135.451813	-80.607300	33.510826
3915.437097	-139.133850	-81.893089	36.140862
3915.440406	-142.348358	-84.289352	39.238468
3915.444666	-150.063141	-89.140327	43.621872
3915.447947	-153.569855	-91.653473	47.303925
3915.451260	-158.070160	-93.699051	50.226189
3915.454599	-162.278229	-96.445984	55.252495
3915.457956	-167.070740	-99.485146	58.350098
3915.461313	-171.512573	-101.939842	63.259506
3915.464193	-176.012878	-105.154335	68.110466
3915.467526	-181.623627	-107.725945	72.610764
3915.470861	-186.182373	-111.174217	78.163078
3915.474247	-191.384003	-113.862694	84.007614
3915.477505	-196.468750	-117.310982	89.618362
3915.480853	-201.553497	-119.882576	95.813560
3915.483742	-206.988892	-123.213966	103.177681
3915.487077	-212.833435	-126.779137	110.541801
3915.490412	-218.677979	-130.168961	117.438362
3915.493737	-223.704285	-133.383469	125.328468
3915.497069	-229.431915	-137.240845	133.452393
3915.500404	-235.393341	-141.215134	141.400940
3915.503742	-241.062531	-144.371185	150.401520
3915.507067	-246.790192	-148.579254	159.811249
3915.510405	-252.459381	-152.495087	170.156067
3915.513741	-258.128601	-156.118698	180.384003
3915.517069	-263.739349	-160.209885	191.430176
3915.520402	-269.642334	-163.891937	202.417877
3915.523739	-275.311523	-168.275330	213.580963
3915.527063	-281.039154	-172.541840	225.679138
3915.530402	-286.123932	-176.808350	238.069550
3915.533734	-291.442444	-180.899536	251.336670
3915.537062	-296.936310	-185.107605	265.305115
3915.540452	-301.962616	-188.731201	280.559357
3915.543740	-307.690247	-192.647034	296.281158
3915.547071	-312.658112	-197.147339	312.353607
3915.550400	-317.041504	-200.946289	329.127441
3915.553762	-321.308014	-205.797256	347.245483
3915.557062	-325.223846	-208.310394	366.240234
3915.560399	-328.789032	-210.940445	385.819397
3915.563734	-331.769714	-214.797836	405.749298
3915.567068	-335.042664	-217.486328	426.672729
3915.570395	-337.029816	-220.174805	449.057312
3915.573731	-338.666290	-221.635956	472.786102
3915.577067	-339.542969	-223.623077	496.281097
3915.581266	-338.841614	-224.967331	544.966064
3915.584700	-336.796051	-224.616653	570.915833
3915.588005	-333.990662	-224.149094	597.917603
3915.591323	-330.074829	-222.103516	624.627075
3915.594578	-324.464050	-219.415009	650.927551
3915.597938	-318.268860	-216.258972	678.279968
3915.600818	-310.203400	-212.284698	704.697205
3915.604148	-300.150787	-207.725937	730.120972
3915.607487	-289.513763	-201.881424	755.486267
3915.610822	-276.947998	-194.984848	779.916382
3915.614191	-262.745789	-186.977844	803.820618
3915.617062	-247.666870	-178.152603	826.205139
3915.620398	-230.483948	-169.619568	846.953186
3915.623726	-213.184113	-159.450089	867.000000
3915.627083	-194.130920	-149.105255	884.592041
3915.630430	-173.791962	-137.825302	899.203369
3915.633735	-152.868500	-125.902443	913.347168
3915.637059	-131.302185	-113.628914	924.744019
3915.640414	-107.456474	-101.121620	935.497925
3915.643721	-83.844566	-88.322083	944.030945
3915.647057	-59.414391	-75.756325	949.583252
3915.650391	-35.276466	-62.021675	953.499146
3915.653724	-10.612530	-49.046806	953.732849
3915.657052	13.934525	-36.130386	951.921082
3915.660387	38.247791	-22.220392	949.174133
3915.663726	63.846855	-9.771528	944.147888
3915.667052	87.751007	2.794222	936.959045
3915.670415	111.070702	16.236652	925.679077
3915.673719	133.922836	28.276396	914.223877
3915.677052	156.424286	41.660381	900.372314
3915.680384	177.873749	52.648109	885.702515
3915.683731	198.797180	64.454071	868.928711
3915.687054	218.259491	75.383354	850.518433
3915.690386	237.020447	85.845070	831.991211
3915.693716	254.378723	96.248344	809.548157
3915.697058	270.509613	106.359390	787.864990
3915.700386	285.179413	115.885979	764.720642
3915.703735	299.030975	124.594337	741.576294
3915.707059	311.772064	132.426010	716.912292
3915.710382	322.350677	140.842148	691.780823
3915.714611	341.520752	153.992340	639.881348
3915.717903	348.592621	159.719986	613.639404
3915.721227	354.437164	165.038513	587.689636
3915.724594	358.937469	169.071243	561.155457
3915.728008	362.502625	172.928650	534.679687
3915.731329	364.489777	176.143127	510.191132
3915.734163	366.243134	178.890060	484.066071
3915.737506	365.775574	180.409653	459.109894
3915.740815	365.191101	181.695435	434.095276
3915.744137	363.554657	182.162994	411.126251
3915.747480	361.275269	182.046112	387.981903
3915.750812	358.060760	181.870789	366.240234
3915.753707	353.268250	181.227875	345.959686
3915.757063	348.767944	179.416077	326.146729
