time (s)	magX	magY	magZ
5516.250316	88.335457	34.120930	6.450624
5516.253649	91.257721	35.348282	6.859741
5516.256989	94.004654	36.224964	8.262428
5516.261622	100.258308	38.621223	11.535370
5516.264945	103.122131	39.497902	12.236713
5516.267858	105.576843	41.192818	13.580956
5516.271181	109.375793	42.303280	16.210999
5516.274570	113.174728	44.056641	17.204567
5516.277901	116.447670	45.810001	19.483940
5516.281245	120.538849	46.219116	20.945072
5516.284061	123.928680	48.732269	23.399776
5516.287396	127.552292	50.777855	26.088261
5516.290736	131.234344	52.706551	28.718304
5516.294066	135.442413	54.635250	30.705444
5516.297410	139.767365	56.856171	33.744606
5516.300308	143.624756	59.427769	35.556408
5516.303670	148.358826	60.713566	39.472248
5516.306973	152.859131	63.051384	42.862076
5516.310307	157.885437	65.272308	46.836365
5516.313641	162.444168	67.610115	50.459969
5516.316971	167.002899	69.129700	54.784935
5516.320310	172.087646	71.584404	58.876106
5516.323638	178.165970	73.688438	62.675056
5516.326985	183.192261	75.967804	67.642906
5516.330303	189.796600	78.773178	73.429001
5516.333643	194.530670	80.643433	79.039757
5516.336973	200.492096	82.864357	85.527184
5516.340301	207.096405	85.845070	91.547066
5516.343640	212.707184	87.423096	98.326721
5516.346969	219.720612	89.468681	106.041512
5516.350306	225.682037	92.157166	114.632973
5516.353655	232.111023	93.793640	123.107536
5516.356972	239.007568	96.657463	131.699005
5516.360305	246.137909	98.644608	141.342499
5516.363636	252.683777	100.748634	151.219757
5516.366973	258.820557	102.677330	163.259521
5516.370297	265.775543	104.489136	174.597900
5516.373633	272.847443	107.352959	187.748108
5516.376973	278.984222	108.930984	201.833435
5516.380302	285.296295	111.151909	216.561676
5516.383629	291.725311	113.080605	231.056122
5516.386967	297.862061	114.833961	248.063721
5516.390305	304.174164	117.171776	264.545319
5516.393632	309.726471	118.925140	283.014038
5516.398271	319.603729	121.847412	320.769745
5516.401154	323.811798	123.425430	342.511414
5516.404506	327.493866	124.185226	364.019287
5516.407838	330.591461	125.295685	386.637665
5516.411255	332.286346	125.178795	409.723602
5516.414582	333.396851	125.412575	433.277069
5516.417408	333.279938	124.594337	458.700775
5516.420729	332.695496	123.834549	483.130951
5516.424053	330.182343	121.964302	508.671539
5516.427387	327.201630	120.035606	533.978333
5516.430727	322.584442	116.821106	559.869690
5516.434060	316.739899	113.548164	585.059570
5516.436961	309.141998	110.392120	609.957275
5516.440318	300.608978	105.132042	635.322632
5516.443628	291.023956	99.579727	660.746338
5516.446958	280.153107	92.858513	683.832275
5516.450293	266.886017	85.494400	706.918213
5516.453629	252.508453	77.545830	730.296326
5516.456958	237.371094	68.603691	751.336609
5516.460295	220.188171	59.018650	770.974304
5516.463623	201.777893	48.498489	789.852112
5516.466955	182.607819	37.276981	806.976624
5516.470290	162.210388	23.892994	822.815308
5516.473631	140.293381	11.619471	835.790161
5516.476956	117.616585	-1.413847	848.122131
5516.480293	94.413773	-15.031610	856.713562
5516.483655	69.866730	-28.707827	864.428406
5516.486957	44.559887	-43.260712	869.337830
5516.490294	19.720612	-57.521385	871.208069
5516.493620	-5.352444	-71.665161	869.571594
5516.496963	-30.893059	-85.750488	866.473938
5516.500290	-56.199898	-99.952721	861.389221
5516.503619	-81.623634	-113.395134	852.037964
5516.506954	-105.761559	-125.960884	841.342468
5516.510289	-129.782593	-138.059097	827.432556
5516.513620	-152.576294	-149.865036	811.184692
5516.516951	-174.493286	-160.385208	792.949768
5516.520286	-194.890717	-169.736465	772.669189
5516.523618	-214.002350	-178.211029	750.693726
5516.526960	-231.477509	-186.276489	727.432495
5516.531221	-262.278229	-198.374695	679.156616
5516.534472	-275.720642	-203.108780	653.382202
5516.537807	-287.059052	-206.732376	626.205139
5516.541142	-296.644073	-209.245529	598.852722
5516.544513	-305.761536	-210.998886	570.740479
5516.547820	-312.015198	-211.583344	543.738770
5516.550743	-317.450623	-212.635361	516.853882
5516.554067	-320.255981	-211.992462	490.845734
5516.557399	-323.119843	-210.472885	464.895996
5516.560720	-324.113403	-209.070190	438.946259
5516.564077	-323.587402	-206.732376	414.632965
5516.567373	-323.119843	-204.862137	391.196411
5516.570290	-321.308014	-202.173645	368.519592
5516.573615	-318.385742	-198.666916	346.544159
5516.576949	-314.645233	-195.803101	325.445374
5516.580281	-310.729401	-192.705505	306.158386
5516.583610	-305.586212	-189.198761	287.397461
5516.586947	-300.618347	-185.808929	269.162476
5516.590284	-294.072479	-181.483994	252.213348
5516.593617	-289.046204	-177.685028	237.017548
5516.596947	-282.441864	-173.886093	220.945068
5516.600278	-276.071320	-169.911804	206.742859
5516.603610	-269.291656	-166.405075	193.768005
5516.606964	-262.453552	-162.372345	180.793121
5516.610290	-255.907684	-158.456512	167.935150
5516.613610	-248.894226	-154.190002	156.246063
5516.616940	-241.471680	-150.274170	145.258331
5516.620274	-234.575104	-145.540100	135.147278
5516.623611	-227.795441	-141.974930	125.854485
5516.626940	-221.483337	-137.825302	116.678566
5516.630273	-214.352997	-134.552368	107.561089
5516.633606	-207.631805	-130.519638	99.495628
5516.636943	-201.261261	-126.837563	91.663948
5516.640272	-195.299835	-122.571053	84.650505
5516.643604	-188.695496	-119.298119	77.052605
5516.646936	-183.084747	-115.265404	71.324966
5516.650303	-177.298676	-112.050896	65.714211
5516.653608	-171.629486	-107.959724	59.986572
5516.656943	-166.544739	-104.920555	55.194046
5516.660271	-160.700195	-101.589180	49.524849
5516.663604	-155.732330	-98.550026	44.849220
5516.667879	-145.855072	-92.296364	37.601997
5516.671245	-142.056122	-88.672760	32.517250
5516.674489	-136.679138	-85.458260	29.536537
5516.677779	-132.646423	-82.652885	26.322044
5516.681126	-128.964355	-79.496841	23.341331
5516.684464	-124.230293	-77.392799	20.126839
5516.687357	-120.840462	-74.704315	18.139694
5516.690722	-116.690849	-72.015823	14.516083
5516.694080	-113.125679	-69.970245	12.704277
5516.697390	-110.144966	-68.099991	11.652260
5516.700321	-106.696678	-66.054405	10.074238
5516.703607	-103.715981	-64.301041	8.496210
5516.706939	-99.975471	-62.138565	6.742851
5516.710263	-97.520760	-59.859200	5.573944
5516.713603	-95.124519	-58.573402	3.353022
5516.716929	-91.910011	-57.112259	2.651676
5516.720266	-89.689095	-56.001801	1.891886
5516.723603	-87.409721	-54.716003	0.489199
5516.726929	-85.422585	-53.196426	0.372307
5516.730263	-82.850990	-52.144409	-1.614834
5516.733600	-80.630058	-50.683273	-2.374624
5516.736969	-78.409142	-49.981934	-2.549961
5516.740262	-76.655769	-48.637688	-3.134415
5516.743600	-74.259514	-47.761009	-3.894203
5516.746931	-72.447708	-46.533653	-4.829329
5516.750264	-70.519012	-45.481636	-4.186430
5516.753599	-69.116325	-45.189415	-4.946220
5516.756927	-67.012291	-43.552948	-5.413782
5516.760258	-65.551155	-43.436058	-6.290463
5516.763596	-63.739349	-42.617821	-6.699581
5516.766928	-62.219765	-41.682686	-6.758026
5516.770295	-60.349518	-40.572227	-7.342480
5516.773592	-58.946831	-39.578659	-7.634706
5516.776931	-57.602592	-38.994202	-8.511387
5516.780292	-56.492134	-37.708405	-8.862059
5516.783596	-54.797211	-36.831726	-7.751597
5516.786933	-53.452972	-35.955048	-8.452941
5516.790256	-52.693184	-34.844589	-8.511387
5516.793592	-51.524277	-33.851013	-9.446512
5516.796923	-50.296921	-33.909462	-10.264748
5516.801137	-48.543564	-32.740547	-9.271175
5516.804489	-47.549995	-31.513201	-9.504957
5516.807850	-46.556419	-30.753408	-9.972521
5516.811197	-45.738182	-30.227404	-9.738739
5516.814536	-44.686165	-29.467611	-9.329621
5516.817803	-43.692596	-28.649378	-9.972521
5516.820685	-43.225029	-28.474043	-9.797185
5516.824048	-42.582138	-27.655809	-9.914075
5516.827348	-41.471672	-26.603792	-10.732310
5516.830684	-40.244324	-26.428453	-10.323193
5516.834005	-39.718307	-25.785559	-10.440084
5516.836924	-39.309196	-25.727110	-10.089411
5516.840259	-38.666298	-25.084215	-10.498528
5516.843585	-38.257179	-24.675097	-10.673864
5516.846915	-37.497391	-24.499762	-10.673864
5516.850250	-37.322052	-24.207533	-10.615419
5516.853635	-36.796043	-24.324423	-10.264748
5516.856916	-36.094704	-23.213957	-10.381638
5516.860255	-35.685577	-23.739969	-10.089411
5516.863587	-34.808907	-23.272406	-11.199873
5516.866933	-34.458229	-23.097067	-11.082982
5516.870256	-34.107559	-22.863287	-9.797185
5516.873586	-33.932220	-22.921736	-10.790755
5516.876920	-33.113983	-22.278833	-9.972521
5516.880254	-33.055542	-22.512613	-9.738739
5516.883581	-32.704872	-22.220392	-9.154285
5516.886916	-32.003525	-21.694380	-10.030966
5516.890248	-31.769745	-21.460600	-9.797185
5516.893585	-31.535965	-21.694380	-9.212730
5516.896916	-31.009956	-21.226816	-9.446512
5516.900244	-30.776169	-21.928160	-9.095840
5516.903581	-30.425499	-20.934595	-9.797185
5516.906911	-30.250168	-21.051485	-9.212730
5516.910265	-30.074829	-21.051485	-9.212730
5516.913620	-30.074829	-20.934595	-8.745168
5516.916917	-30.308609	-20.934595	-9.271175
5516.920246	-29.315041	-20.233248	-9.738739
5516.923585	-29.139702	-20.233248	-8.978950
5516.926916	-28.555252	-20.934595	-9.095840
5516.930253	-29.256592	-19.824129	-9.738739
5516.934887	-28.379913	-19.648798	-9.329621
5516.937782	-28.730591	-19.415014	-9.680293
5516.941124	-28.146126	-19.181231	-8.511387
5516.944558	-27.853905	-19.005896	-10.147857
5516.947827	-28.263016	-18.713667	-9.914075
5516.951104	-27.620125	-18.479887	-10.264748
5516.954047	-28.029236	-19.239676	-10.440084
5516.957331	-27.561676	-18.421442	-10.030966
5516.960669	-27.269455	-18.538332	-10.147857
5516.964002	-27.269455	-19.356565	-9.972521
5516.967330	-27.094116	-18.713667	-9.972521
5516.970662	-26.977219	-18.187658	-9.563402
5516.973575	-27.094116	-18.421442	-10.206302
5516.976908	-26.860329	-17.953878	-10.147857
5516.980245	-26.684998	-18.479887	-9.972521
5516.983576	-27.211006	-18.655222	-10.381638
5516.986949	-26.801888	-18.538332	-10.264748
5516.990237	-26.801888	-17.953878	-10.147857
5516.993573	-26.743439	-18.129213	-9.855630
5516.996943	-26.392769	-18.538332	-10.381638
5517.000239	-26.860329	-18.479887	-10.615419
5517.003580	-26.684998	-18.012323	-10.615419
5517.006907	-26.743439	-18.421442	-10.323193
5517.010236	-27.211006	-17.603205	-9.738739
5517.013573	-26.801888	-18.070768	-9.855630
5517.016903	-26.918777	-18.421442	-10.498528
5517.020235	-27.444786	-18.246103	-10.030966
5517.023565	-27.327896	-18.479887	-9.797185
5517.026904	-27.737015	-18.129213	-9.914075
5517.030235	-27.970795	-18.304552	-10.381638
5517.033569	-27.561676	-18.421442	-9.972521
5517.036907	-28.146126	-18.304552	-9.914075
5517.040257	-27.912346	-18.362997	-9.972521
5517.043576	-27.737015	-17.953878	-9.914075
5517.046901	-27.970795	-18.246103	-9.446512
5517.050236	-28.087685	-18.655222	-9.212730
5517.053565	-28.438362	-18.246103	-9.797185
5517.056897	-28.496803	-18.889002	-10.089411
5517.060233	-28.029236	-18.830557	-10.264748
5517.063565	-28.263016	-19.590349	-10.556973
5517.068192	-28.438362	-19.473455	-9.504957
5517.071106	-28.204575	-19.590349	-9.738739
5517.074537	-28.730591	-19.356565	-9.855630
5517.077821	-29.022812	-20.174803	-10.030966
5517.081164	-28.847481	-20.116358	-10.440084
5517.084446	-29.139702	-20.057909	-10.323193
5517.087741	-28.964371	-19.473455	-10.030966
5517.090657	-29.490372	-19.824129	-10.206302
5517.093991	-29.607262	-20.116358	-9.680293
5517.097316	-29.724159	-19.999468	-10.615419
5517.100652	-30.425499	-20.057909	-10.089411
5517.104013	-29.782600	-19.999468	-10.615419
5517.106895	-30.659279	-19.999468	-10.615419
5517.110230	-30.308609	-20.467031	-10.556973
5517.113558	-31.009956	-20.642363	-10.673864
5517.116923	-31.535965	-20.934595	-10.440084
5517.120226	-31.945076	-21.168375	-10.089411
5517.123559	-32.646423	-21.635939	-10.556973
5517.126918	-32.938652	-21.285265	-10.849200
5517.130230	-33.172432	-21.811270	-10.673864
5517.133562	-33.756889	-22.278833	-10.790755
5517.136894	-33.756889	-22.395723	-10.966091
5517.140229	-34.341339	-22.571062	-10.206302
5517.143555	-34.808907	-23.389299	-10.673864
5517.146897	-35.218018	-23.213957	-10.673864
5517.150223	-35.685577	-24.207533	-10.440084
5517.153557	-36.445374	-24.265982	-10.264748
5517.156890	-36.912933	-24.791986	-10.089411
5517.160219	-37.614281	-24.908876	-9.972521
5517.163557	-38.023399	-25.259546	-9.446512
5517.166894	-38.958527	-26.194674	-9.504957
5517.170242	-39.601418	-25.844000	-10.790755
5517.173550	-40.478104	-26.603792	-9.563402
5517.176884	-40.536545	-27.012907	-10.264748
5517.180245	-41.530121	-28.006483	-9.095840
5517.183561	-41.997681	-28.474043	-9.563402
5517.186885	-42.932808	-29.058496	-8.569832
5517.190220	-43.809486	-29.292280	-9.271175
5517.193559	-44.335495	-29.701395	-9.095840
5517.196886	-45.679733	-29.642950	-9.504957
5517.200223	-45.971962	-30.402739	-9.388066
5517.204843	-48.017555	-31.805426	-8.862059
5517.207784	-48.777344	-32.448326	-9.271175
5517.211092	-49.478691	-32.857445	-8.628277
5517.214517	-50.413818	-33.558792	-8.628277
5517.217836	-52.108719	-33.851013	-9.388066
5517.221079	-52.751633	-34.727699	-8.862059
5517.223976	-54.095871	-35.195259	-8.686723
5517.227308	-54.621880	-35.662819	-8.102269
5517.230639	-56.083015	-35.955048	-8.277605
5517.233979	-57.836372	-36.539497	-7.284035
5517.237306	-59.531288	-37.883743	-7.342480
5517.240213	-60.700195	-38.468201	-7.225589
5517.243552	-62.278214	-38.818871	-6.758026
5517.246877	-62.979561	-40.630669	-6.465799
5517.250208	-65.083595	-41.039795	-5.589119
5517.253547	-66.369392	-41.858025	-5.355337
5517.256893	-68.765656	-43.377609	-5.180000
5517.260224	-70.577461	-44.137398	-4.361767
5517.263554	-72.739937	-45.247856	-4.420212
5517.266881	-74.610191	-46.241432	-3.660421
5517.270208	-76.363548	-47.235001	-2.783743
5517.273550	-78.935143	-48.228569	-1.497944
5517.276880	-80.630058	-50.566383	-1.907063
5517.280207	-83.143196	-51.793739	0.372307
5517.283544	-85.305687	-53.137978	0.722979
5517.286876	-87.526619	-54.949791	1.658104
5517.290212	-90.273537	-56.644699	2.885458
5517.293542	-92.962029	-58.456505	3.937473
5517.296875	-95.416725	-59.859200	5.223272
5517.300231	-98.923454	-62.138565	6.625959
5517.303541	-101.904167	-63.541252	8.203983
5517.306876	-105.001778	-65.411507	10.015793
5517.310212	-107.631813	-67.573982	11.593815
5517.313541	-111.255424	-69.853355	12.879612
5517.316868	-114.703697	-71.840492	15.217426
5517.320203	-118.093529	-74.061424	17.146122
5517.323539	-121.658699	-76.165451	19.893055
5517.326872	-125.925209	-78.327919	22.113979
5517.330206	-129.724152	-80.782631	24.276455
5517.333535	-134.282898	-83.237343	27.081833
5517.337736	-142.699005	-88.263634	33.393936
5517.341060	-146.965546	-91.302795	37.017544
5517.344439	-152.225616	-94.049728	40.758045
5517.347748	-157.251923	-96.329094	44.907669
5517.351140	-162.102875	-99.134468	49.115730
5517.354467	-167.596741	-101.822960	53.440689
5517.357346	-172.739929	-105.037453	58.992996
5517.360629	-178.642914	-107.609047	63.902405
5517.363967	-184.545898	-110.589760	69.630051
5517.367309	-189.455292	-114.213371	74.948578
5517.370628	-196.293396	-117.018745	82.195801
5517.373537	-202.313293	-121.168373	88.566345
5517.376866	-208.333160	-124.149086	98.151390
5517.380196	-215.054352	-127.655815	105.749275
5517.383532	-221.892487	-131.630096	114.516075
5517.386876	-227.853882	-134.610809	125.036247
5517.390200	-234.458221	-138.409760	134.329071
5517.393529	-241.647003	-142.500931	145.492126
5517.396867	-248.309784	-146.533661	157.473419
5517.400201	-255.264771	-150.917068	169.863831
5517.403532	-262.278229	-155.358917	183.598480
5517.406903	-268.473419	-159.683868	198.151398
5517.410203	-275.486877	-164.476379	213.054962
5517.413526	-281.448303	-168.450668	228.250732
5517.416898	-287.935730	-172.717178	246.018158
5517.420196	-293.546478	-177.100571	263.493286
5517.423525	-299.390991	-181.191772	282.371124
5517.426865	-304.417328	-185.341370	302.417908
5517.430200	-309.735840	-189.081863	323.575104
5517.433533	-313.943909	-192.237930	345.024567
5517.436862	-316.983063	-195.335541	368.285828
5517.440195	-320.548218	-198.082458	391.196411
5517.443526	-322.360046	-200.946289	415.392761
5517.446857	-323.704285	-202.816544	439.355347
5517.450196	-323.587402	-203.576340	465.714233
5517.453521	-323.704285	-204.219238	492.365265
5517.456854	-321.775574	-203.284103	519.133240
5517.460213	-318.736420	-202.874985	545.024536
5517.463523	-314.411469	-201.180069	571.149658
5517.466860	-309.443604	-197.965591	597.216187
5517.471125	-293.663361	-190.309219	649.758606
5517.474375	-284.312103	-184.873810	673.955017
5517.477705	-273.616608	-179.146179	698.677368
5517.481044	-260.466400	-171.548279	721.763245
5517.484398	-246.907074	-162.723022	743.972534
5517.487733	-231.711304	-153.605560	765.714233
5517.490686	-214.820587	-143.202286	785.293396
5517.493978	-197.403870	-132.857452	802.593201
5517.497351	-178.000031	-121.285271	817.964355
5517.500607	-156.550568	-109.420845	832.634155
5517.503987	-134.808899	-96.445984	845.141418
5517.507274	-112.132103	-83.061996	855.369385
5517.510188	-87.760399	-70.730034	861.389221
5517.513522	-62.570442	-56.936928	865.188232
5517.516863	-37.146713	-43.085381	867.525940
5517.520186	-11.430763	-29.642950	867.409119
5517.523518	14.226749	-15.849848	863.785461
5517.526847	40.351822	-2.933424	858.876099
5517.530185	66.944458	9.456991	850.459961
5517.533515	92.075958	21.847406	839.822876
5517.536850	116.973679	34.763828	828.426086
5517.540184	140.644043	44.991768	812.645813
5517.543513	163.671524	55.804157	795.521362
5517.546855	185.880737	66.090538	776.994141
5517.550185	206.395081	74.974236	756.479858
5517.553570	225.565155	83.682594	735.322632
5517.556850	242.864960	91.806496	711.827576
5517.560191	259.112793	98.995277	688.449402
5517.563519	273.548798	105.307373	663.785522
5517.566846	286.172974	110.567451	639.413757
5517.570184	297.102264	115.301529	614.223877
5517.573512	306.102844	119.684929	588.332520
5517.576864	314.460541	123.776108	562.324402
5517.580183	320.363525	127.049042	536.725281
5517.583517	325.798950	129.971298	512.587341
5517.586845	329.013428	131.783127	487.864990
5517.590186	331.468140	134.004044	464.253082
5517.593513	332.695496	135.056061	440.173615
5517.596845	332.695496	135.757401	417.379913
5517.600176	331.935699	136.809418	395.112244
5517.603511	330.357666	136.692535	374.364136
5517.607789	323.928680	136.283401	334.153717
5517.611142	320.071289	135.289841	314.925201
5517.614366	315.687897	134.354721	296.690247
5517.617691	310.895386	133.010468	279.682648
5517.621060	305.518372	132.016907	263.610199
5517.624376	300.433655	130.205093	248.180603
5517.627270	294.296875	128.568619	233.393921
5517.630594	287.692566	125.938583	218.957947
5517.633964	281.906494	123.717659	207.093506
5517.637283	274.951477	121.087616	193.534210
5517.640615	268.580933	118.808250	181.319122
5517.643510	262.035065	116.002869	170.506744
5517.646849	255.313843	112.905273	159.226776
5517.650172	248.651062	109.866112	148.881958
5517.653510	241.929840	106.768509	139.998260
5517.656842	235.267059	103.787796	130.588562
5517.660174	228.721191	100.923973	121.178856
5517.663532	221.883087	97.767921	113.405632
5517.666842	215.395660	95.079437	105.398613
5517.670173	209.726471	92.098717	98.034492
5517.673504	203.998810	89.410233	91.897728
5517.676848	197.569824	85.845070	85.585632
5517.680172	192.835754	83.039688	79.331985
5517.683501	187.049652	80.234314	73.604340
5517.686840	181.088242	77.721161	68.344254
5517.690164	176.120392	74.506668	62.967278
5517.693501	170.568069	72.110413	58.408546
5517.696834	165.483337	69.363480	53.674469
5517.700165	160.164795	66.791885	48.998840
