time (s)	magX	magY	magZ
7519.899929	-97.696114	-60.911209	9.782011
7519.903266	-95.299843	-60.092979	10.892471
7519.906592	-93.897163	-58.514954	11.476925
7519.909921	-91.851555	-57.696716	12.645832
7519.913256	-89.864418	-56.294029	12.236713
7519.916592	-88.052620	-55.125122	13.054951
7519.919948	-86.357704	-54.131554	14.106964
7519.924223	-83.493874	-52.261299	14.223858
7519.927449	-81.623634	-51.501511	14.574528
7519.930777	-79.928719	-50.040375	15.568100
7519.934100	-79.168922	-49.923485	15.626545
7519.937467	-77.824684	-48.637688	15.626545
7519.940810	-76.889549	-47.527229	16.269444
7519.943716	-75.486870	-47.410339	16.737007
7519.947036	-74.434860	-46.241432	15.977215
7519.950412	-72.915276	-46.358322	16.386333
7519.953676	-72.506157	-45.949203	16.269444
7519.957045	-71.921700	-45.481636	16.620113
7519.959919	-70.168343	-45.072525	16.970787
7519.963284	-69.583885	-44.663406	16.678558
7519.966590	-68.707207	-43.552948	17.029232
7519.969927	-68.122749	-43.085381	16.210999
7519.973253	-67.304520	-42.968491	16.269444
7519.976589	-66.369392	-42.676262	17.204567
7519.979917	-65.960281	-42.384041	16.327888
7519.983254	-65.258934	-41.858025	16.386333
7519.986584	-64.440697	-41.156685	16.035660
7519.989918	-64.031578	-41.039795	17.029232
7519.993252	-63.564018	-40.689117	16.970787
7519.996586	-62.512001	-39.695549	16.327888
7519.999917	-61.985985	-39.812439	16.444778
7520.003247	-60.933975	-39.987778	16.970787
7520.006604	-60.875526	-39.111092	17.204567
7520.009915	-60.524864	-39.052650	17.029232
7520.013256	-59.239059	-38.351311	17.204567
7520.016585	-59.005280	-38.468201	17.321457
7520.019918	-58.946831	-38.234413	16.795452
7520.023247	-58.070152	-37.766853	17.321457
7520.026585	-57.485703	-37.474625	17.029232
7520.029916	-56.842796	-37.299294	17.730576
7520.033249	-56.375237	-37.065514	17.263012
7520.036589	-56.199898	-36.714836	16.503223
7520.039918	-55.557007	-36.247276	17.438351
7520.043246	-54.738762	-36.364166	17.087677
7520.046586	-54.446533	-35.896606	17.555241
7520.049929	-53.978973	-35.662819	17.964359
7520.053242	-53.803642	-35.253700	17.847466
7520.057500	-52.810066	-34.903030	17.672131
7520.060832	-52.342506	-34.435463	17.789021
7520.064132	-51.933388	-34.143242	17.730576
7520.067425	-52.108719	-34.727699	17.321457
7520.070759	-51.407379	-34.435463	18.198139
7520.074128	-51.232048	-33.675682	17.613686
7520.077009	-50.939812	-33.909462	17.204567
7520.080340	-50.647598	-34.026352	17.847466
7520.083683	-50.472252	-33.851013	18.315029
7520.087018	-50.706032	-33.441902	18.198139
7520.090400	-51.056709	-33.617233	17.905910
7520.093273	-50.647598	-33.500343	17.964359
7520.096576	-50.296921	-33.675682	17.672131
7520.099912	-50.530701	-33.734123	18.139694
7520.103238	-50.939812	-33.383453	17.496796
7520.106577	-50.881378	-33.792572	18.022804
7520.109904	-50.706032	-33.967903	17.496796
7520.113245	-50.881378	-34.318573	18.139694
7520.116570	-50.647598	-33.851013	16.970787
7520.119900	-51.232048	-33.617233	17.496796
7520.123237	-51.465828	-33.909462	18.022804
7520.126568	-51.232048	-33.967903	16.970787
7520.129905	-51.641159	-34.260132	17.730576
7520.133235	-51.933388	-34.610809	17.146122
7520.136571	-51.991837	-34.552361	16.386333
7520.139905	-51.641159	-34.727699	17.672131
7520.143239	-52.576286	-34.844589	16.795452
7520.146572	-52.751633	-34.552361	16.269444
7520.149900	-53.043846	-34.669250	16.561668
7520.153239	-53.394524	-34.493912	17.438351
7520.156573	-53.336075	-35.078369	17.379906
7520.159899	-53.277626	-34.844589	17.672131
7520.163233	-53.394524	-35.195259	17.613686
7520.166574	-53.394524	-35.779709	17.087677
7520.169903	-54.212753	-35.078369	16.970787
7520.173232	-53.628304	-35.429039	17.672131
7520.176570	-53.628304	-36.247276	17.730576
7520.179897	-53.920540	-36.364166	17.204567
7520.183234	-53.920540	-36.188828	17.730576
7520.186570	-54.329651	-36.481056	17.730576
7520.189901	-55.030998	-36.656387	17.438351
7520.194158	-55.323227	-36.773277	17.730576
7520.197483	-55.615440	-37.299294	17.496796
7520.200752	-55.732338	-38.000633	18.022804
7520.204096	-56.842796	-38.175972	17.263012
7520.207410	-57.251923	-38.175972	18.431919
7520.210769	-57.251923	-38.292862	17.964359
7520.213652	-56.959694	-38.994202	17.438351
7520.217007	-57.602592	-39.870888	17.672131
7520.220351	-58.654610	-39.403320	17.847466
7520.223747	-59.706619	-40.338448	17.847466
7520.226985	-59.472839	-40.630669	17.847466
7520.229900	-60.291084	-40.689117	18.315029
7520.233233	-61.050858	-41.507355	17.379906
7520.236563	-61.752205	-41.916466	17.964359
7520.239894	-62.453552	-42.676262	17.263012
7520.243229	-63.680901	-43.319160	17.730576
7520.246560	-64.440697	-43.728279	17.321457
7520.249893	-65.492722	-44.254288	16.853897
7520.253228	-67.479851	-44.955635	17.263012
7520.256554	-67.830528	-45.423195	16.269444
7520.259893	-68.531876	-46.124542	15.743435
7520.263229	-70.226784	-46.767433	15.918770
7520.266586	-70.869690	-47.468781	15.217426
7520.269888	-72.038597	-48.637688	15.275871
7520.273226	-72.973724	-48.696136	14.808308
7520.276558	-74.317963	-49.865044	13.931629
7520.279888	-75.253090	-51.092400	13.756294
7520.283278	-76.655769	-51.443069	13.522511
7520.286562	-77.590904	-52.378197	13.230286
7520.289888	-78.876701	-53.196426	13.756294
7520.293223	-80.805397	-53.780884	13.347176
7520.296592	-81.857414	-55.183571	12.704277
7520.299885	-83.552330	-55.475792	11.769154
7520.303226	-85.247246	-56.235588	11.535370
7520.306555	-86.240807	-57.696716	11.067806
7520.309913	-87.760399	-58.514954	11.476925
7520.313221	-88.461739	-59.391632	11.009361
7520.316556	-89.747536	-60.735878	10.249573
7520.319889	-91.910011	-61.787895	10.015793
7520.323222	-93.078911	-62.606133	9.957348
7520.327904	-96.644081	-64.768608	8.729992
7520.330817	-98.338997	-65.995956	8.379320
7520.334167	-100.092354	-67.340202	8.437765
7520.337405	-101.728844	-68.742889	8.087093
7520.340732	-103.832863	-69.678009	7.151968
7520.344064	-105.527779	-71.197594	6.450624
7520.347427	-108.040932	-73.009399	5.164825
7520.350314	-109.911186	-74.587418	4.229700
7520.353692	-111.781441	-76.282341	3.353022
7520.357002	-114.528358	-77.977257	3.236130
7520.360341	-116.573952	-79.730621	1.658104
7520.363652	-119.613121	-81.367088	0.547644
7520.366549	-122.710716	-84.055573	-0.562819
7520.369884	-125.925209	-86.334938	-1.381052
7520.373215	-128.204590	-89.257210	-3.309750
7520.376546	-131.769745	-91.595024	-4.887774
7520.379877	-135.393341	-93.699051	-6.933362
7520.383220	-138.257172	-96.270645	-8.803613
7520.386547	-141.588562	-98.316246	-10.323193
7520.389877	-145.270599	-101.296959	-13.245461
7520.393212	-149.420227	-104.452995	-15.407938
7520.396579	-153.336090	-107.024605	-18.388651
7520.399874	-157.427246	-109.771523	-21.135582
7520.403210	-161.810669	-112.518456	-25.109867
7520.406547	-166.194061	-116.551186	-27.389236
7520.409876	-170.635895	-119.824135	-31.012848
7520.413212	-175.662201	-123.564629	-34.519569
7520.416548	-179.285828	-126.370003	-38.026291
7520.419878	-184.721222	-130.694977	-42.000572
7520.423213	-188.929291	-134.026367	-46.734650
7520.426542	-194.130920	-138.059097	-50.533596
7520.429872	-199.332581	-142.208710	-55.209225
7520.433210	-204.358856	-145.832321	-60.469307
7520.436545	-209.326721	-150.391052	-65.846283
7520.439897	-214.703705	-153.839340	-71.515472
7520.443204	-220.606689	-158.281189	-77.243118
7520.446538	-225.574524	-162.489243	-83.087654
7520.449875	-231.302155	-166.755753	-90.977776
7520.453208	-237.029816	-172.132721	-97.465218
7520.456537	-242.874359	-176.399246	-104.127991
7520.459875	-248.835785	-181.250198	-112.134995
7520.464090	-260.700165	-190.893692	-128.149033
7520.467466	-266.486298	-195.569305	-138.727631
7520.470804	-272.272369	-200.829391	-147.728210
7520.474176	-278.116882	-206.031021	-158.365265
7520.477405	-284.662781	-211.349564	-168.885437
7520.480716	-290.974884	-216.375870	-181.042084
7520.483669	-296.644073	-222.103516	-193.198700
7520.486962	-302.663940	-228.298721	-206.991821
7520.490294	-309.502045	-233.383438	-221.018707
7520.493633	-316.223267	-238.994217	-236.097595
7520.496983	-322.126251	-245.306320	-251.877838
7520.499867	-328.438354	-251.559952	-268.593201
7520.503207	-334.224426	-256.936920	-286.769714
7520.506532	-339.952087	-262.723022	-306.115143
7520.509872	-345.971954	-269.093567	-326.278748
7520.513199	-351.056702	-275.230316	-347.143738
7520.516530	-356.082977	-280.081299	-369.177643
7520.519862	-359.823486	-284.990692	-392.380463
7520.523205	-364.031586	-290.075439	-417.687286
7520.526569	-367.596741	-294.692596	-443.461670
7520.529863	-370.402130	-298.842224	-469.878998
7520.533203	-371.804779	-303.225647	-497.406738
7520.536534	-372.915253	-305.855682	-525.986572
7520.539862	-372.915253	-308.602631	-555.150818
7520.543198	-371.804779	-310.531311	-583.438354
7520.546531	-369.642334	-311.641754	-614.005310
7520.549863	-365.551147	-312.109314	-644.338440
7520.553195	-361.869080	-312.050873	-674.729980
7520.556533	-355.556976	-310.706635	-704.127991
7520.559865	-347.900665	-308.076630	-734.227356
7520.563196	-339.776764	-304.920563	-763.566956
7520.566526	-328.672150	-301.998291	-791.620667
7520.569885	-318.093506	-295.744629	-820.551147
7520.573195	-304.475769	-290.426117	-847.436035
7520.576530	-290.565765	-283.821808	-874.262451
7520.579864	-275.019318	-276.282318	-900.212219
7520.583192	-258.654602	-267.047974	-923.414978
7520.586528	-240.361206	-256.936920	-945.156677
7520.589858	-221.366486	-246.825912	-965.554077
7520.593196	-201.027496	-235.545944	-983.379944
7520.597823	-157.894806	-210.297546	-1014.648132
7520.600733	-133.990662	-197.965591	-1027.038574
7520.604063	-110.203407	-183.938675	-1037.675659
7520.607452	-85.714806	-168.859787	-1045.331909
7520.610789	-59.823517	-153.138000	-1051.293335
7520.614097	-33.698441	-137.299301	-1054.040405
7520.617374	-7.339584	-121.694374	-1055.267700
7520.620293	18.434814	-105.329689	-1053.338989
7520.623620	44.559887	-88.380531	-1049.481567
7520.626945	71.912315	-71.080704	-1043.052612
7520.630279	97.686714	-54.540665	-1033.526001
7520.633618	123.344223	-38.234413	-1022.304565
7520.636519	148.417282	-21.460600	-1009.855652
7520.639850	172.730545	-5.680357	-994.016968
7520.643193	196.167145	9.924553	-977.476868
7520.646518	218.493256	25.120346	-958.189941
7520.649850	239.942688	40.959038	-935.805420
7520.653191	259.288116	54.869030	-914.648132
7520.656566	278.458191	68.369911	-890.685547
7520.659853	295.758026	81.344780	-865.437256
7520.663189	311.304504	93.735191	-839.604309
7520.666516	325.448242	104.898262	-812.836365
7520.669847	338.247803	115.067749	-785.133301
7520.673187	349.819977	123.659210	-757.196411
7520.676517	358.820557	132.601349	-730.253113
7520.679849	367.821136	140.549911	-702.082397
7520.683182	374.425476	147.504913	-674.437744
7520.686518	379.334869	154.050797	-646.325562
7520.689848	383.426056	158.726425	-619.031555
7520.693179	386.465210	164.044937	-592.906494
7520.696519	388.218567	167.785461	-567.248962
7520.699867	389.270599	170.766159	-541.357727
7520.703178	388.919922	172.928650	-516.518372
7520.706515	387.867920	174.681992	-491.503784
7520.709843	385.705414	175.850906	-468.417847
7520.713181	382.549377	176.318466	-446.909973
7520.716514	380.153107	177.019806	-425.402100
7520.719844	376.237274	177.195160	-405.063110
7520.723187	370.977203	177.253586	-385.191681
7520.726516	366.535370	175.909348	-365.787811
7520.729842	361.918152	174.740448	-348.078857
7520.734474	350.053772	172.344177	-314.239014
7520.737372	344.443024	170.766159	-298.458771
7520.740716	338.306244	168.779022	-283.438324
7520.744074	332.111023	166.324326	-268.826996
7520.747431	325.915802	164.512497	-255.033875
7520.750772	319.019287	161.824020	-241.825226
7520.753683	312.707184	159.719986	-229.376373
7520.756935	305.109283	157.323730	-216.927521
7520.760265	299.323212	153.700119	-205.822906
7520.763604	292.718872	151.128525	-194.367615
7520.766948	285.120972	148.323151	-183.613678
7520.770267	278.458191	145.167099	-172.333710
7520.773180	271.327850	142.127945	-163.157806
7520.776508	264.314423	138.504333	-153.397400
7520.779843	257.885437	135.757401	-144.455276
7520.783183	250.871979	132.835129	-134.753357
7520.786531	244.793671	130.205093	-127.038559
7520.789837	238.130890	126.756821	-120.142006
7520.793175	231.468140	124.068336	-112.368774
7520.796507	225.156036	121.438293	-105.413788
7520.799859	219.545288	118.632912	-98.692566
7520.803167	213.466949	115.535309	-92.438911
7520.806504	207.622437	113.372833	-85.834595
7520.809836	201.661011	110.450562	-80.340729
7520.813174	195.816467	107.762077	-74.671524
7520.816537	191.433075	104.781364	-70.054344
7520.819839	185.880737	102.443550	-64.618927
7520.823170	180.328445	100.339516	-60.177078
7520.826505	175.594376	97.943260	-57.313255
7520.829845	170.977173	95.254776	-52.988300
7520.833172	166.418457	93.384514	-48.780235
7520.836509	161.918152	90.462250	-45.565742
7520.839831	157.826981	88.416664	-41.825237
7520.843167	153.209808	86.780197	-39.078308
7520.846499	149.703079	84.033264	-36.331375
7520.849832	145.728790	82.455238	-33.818226
7520.853168	142.514313	80.760323	-30.779066
7520.856498	139.241364	78.130280	-28.733479
7520.859894	135.442413	76.727592	-26.337219
7520.863180	132.052582	75.149567	-24.992977
7520.866496	129.247208	73.162430	-21.953817
7520.871149	123.344223	69.714149	-18.096424
7520.874018	120.772629	68.837471	-16.343063
7520.877364	118.084145	67.084106	-15.524829
7520.880705	115.687881	65.798309	-14.180586
7520.884105	112.824059	64.337181	-12.310335
7520.887411	110.486252	63.460503	-11.082982
7520.890351	108.440659	62.057808	-10.323193
7520.893594	105.985954	60.830456	-10.030966
7520.896924	104.466370	59.895332	-8.569832
7520.900253	101.836334	58.960205	-6.991808
7520.903603	99.615410	56.914619	-5.822899
7520.906912	97.160706	55.628822	-4.946220
7520.909822	95.874908	54.401466	-4.069540
7520.913165	93.420204	53.641678	-3.368195
7520.916490	91.316170	52.297436	-2.374624
7520.919826	89.679703	51.596092	-1.264162
7520.923163	87.634109	50.134956	-0.679708
7520.926491	85.296303	49.316723	0.372307
7520.929824	83.659828	48.556931	1.716551
7520.933180	82.023361	47.563362	2.476339
7520.936493	80.328445	46.628235	3.060795
7520.939838	78.575089	45.576218	3.060795
7520.943161	77.172394	44.582649	4.054365
7520.946502	75.477478	43.647522	4.171255
7520.949823	74.016350	43.238407	5.047935
7520.953155	72.613655	42.186390	5.398607
7520.956489	71.094078	41.251263	6.333733
7520.959827	69.223831	40.608364	6.859741
7520.963154	68.580925	39.673241	7.677975
7520.966488	66.886017	39.322567	8.262428
7520.969820	66.243118	38.504333	7.736422
7520.973152	64.548203	37.802986	8.262428
7520.976510	64.022194	37.218536	8.963774
7520.979819	63.028618	36.809418	9.139109
7520.983155	62.210384	36.049629	9.256001
7520.986481	60.866142	35.874290	9.314445
7520.989822	59.814125	35.465172	9.957348
7520.993156	59.229671	35.289837	9.431335
7520.996488	58.411438	34.822273	9.139109
7520.999818	57.943874	34.530048	10.249573
7521.004508	56.774967	33.828705	9.840454
7521.007387	55.839840	32.659798	10.191128
7521.010665	55.138496	32.133789	9.957348
7521.014065	55.196941	32.016899	10.015793
7521.017351	54.554043	31.549335	9.723566
7521.020789	53.969589	31.900007	10.658691
7521.023601	53.560474	31.198664	10.541801
7521.026933	53.034466	30.205091	9.898903
7521.030266	51.514885	29.854420	10.600246
7521.033579	50.638206	29.912865	10.424908
7521.036901	50.638206	29.503748	11.184700
7521.040235	50.579762	29.094629	9.723566
7521.043147	49.936859	28.627068	10.366463
7521.046481	48.943291	28.743958	10.249573
7521.049813	48.592617	28.510178	10.834026
7521.053151	48.300392	28.159504	10.308018
7521.056517	47.774384	28.510178	11.067806
7521.059809	47.599045	27.516605	11.593815
7521.063151	47.306820	27.691942	11.476925
7521.066475	46.079468	27.458160	11.652260
7521.069808	46.079468	26.756817	11.301590
7521.073147	45.728794	27.165934	11.827599
7521.076475	45.670349	26.523035	12.061378
7521.079820	44.793671	26.698370	12.002934
7521.083148	44.793671	26.113918	12.119823
7521.086480	44.501442	26.055471	12.119823
7521.089810	43.975433	26.113918	12.645832
7521.093139	43.741653	25.880136	12.119823
7521.096480	43.916988	25.763245	12.470497
7521.099847	43.566319	26.172363	13.054951
7521.103141	43.215645	26.055471	12.587387
7521.106478	42.864975	24.945011	12.353607
7521.109810	42.923416	25.471018	14.165409
7521.113141	42.864975	25.412573	13.756294
7521.116472	42.163628	25.237236	13.288731
7521.119810	41.988293	25.295681	12.879612
7521.123137	41.929848	25.354128	13.814739
7521.126471	42.338966	25.471018	12.821167
7521.129810	42.806526	25.237236	13.230286
7521.133137	43.040310	25.237236	12.587387
7521.136469	42.806526	25.354128	12.704277
7521.140745	42.748081	25.120346	13.054951
7521.144030	43.449425	25.763245	13.113396
7521.147314	43.274090	25.646355	11.827599
7521.150687	42.864975	25.587910	11.769154
7521.154005	42.981865	25.997026	11.710709
7521.157340	43.916988	26.347698	12.178268
7521.160248	43.975433	26.698370	12.119823
7521.163583	44.150772	26.698370	11.418480
7521.166895	44.092323	26.756817	11.652260
7521.170221	44.793671	27.341270	11.593815
7521.173563	44.559887	27.165934	11.009361
7521.176470	45.202789	27.107489	10.541801
7521.179799	45.553459	27.341270	11.067806
7521.183134	45.787239	27.458160	10.717136
7521.186501	45.845688	27.691942	10.600246
7521.189795	46.021023	28.101059	11.360035
7521.193137	46.430138	28.802402	11.009361
7521.196462	46.780811	28.685513	11.243145
7521.199797	47.599045	28.042614	10.366463
7521.203132	47.599045	28.743958	10.892471
7521.206461	48.066608	29.094629	10.483356
7521.209803	48.008163	29.153076	9.898903
7521.213134	48.592617	29.679083	11.301590
7521.216466	49.703079	29.971310	10.950916
7521.219800	49.410854	30.088202	10.892471
7521.223128	49.703079	31.023327	11.184700
7521.226466	50.053753	31.373999	10.892471
7521.229832	50.287533	31.666225	11.886044
7521.233130	50.638206	32.133789	11.184700
7521.236471	50.579762	32.133789	10.541801
7521.239799	51.222660	32.835133	10.600246
7521.243125	51.748669	33.478031	11.009361
7521.246464	53.560474	33.711815	10.249573
7521.249790	53.502026	34.296265	10.424908
7521.253130	54.729382	34.822273	11.360035
7521.256457	55.430725	34.763828	10.191128
7521.259790	55.722950	35.231392	10.834026
7521.263122	56.541187	35.757401	9.957348
7521.266455	57.476311	35.757401	9.665119
7521.269789	58.294548	36.517189	8.905327
7521.274077	59.989464	37.686096	8.262428
7521.277312	60.457024	38.095215	7.677975
7521.280656	62.268829	39.030342	7.502640
7521.283969	62.853283	39.381012	6.976631
7521.287328	64.197525	40.491474	7.444195
7521.290667	64.665092	41.075928	5.807724
7521.293584	66.243118	42.244835	6.392178
7521.296920	67.178238	42.770844	5.398607
7521.300239	68.756264	43.355297	5.515499
7521.303549	70.158951	44.173531	5.457052
7521.306880	71.444748	45.050213	4.288147
7521.310206	73.081223	46.452900	3.586802
7521.313125	74.425461	46.920464	2.593229
7521.316450	75.711258	48.206261	2.067223
7521.319788	77.172394	49.024498	1.190542
7521.323125	78.458191	49.842728	1.424324
7521.326455	79.919327	51.362312	1.424324
7521.329786	81.789581	52.122101	0.255417
7521.333111	83.367599	52.940334	-0.445927
7521.336446	84.478065	54.752140	-1.965508
7521.339783	86.815880	55.511929	-2.959078
7521.343118	87.984787	56.739281	-3.075970
7521.346455	89.913483	57.966637	-4.127985
7521.349787	91.374619	59.135544	-4.887774
7521.353129	92.835754	60.246002	-5.706009
7521.356449	94.881340	61.531799	-6.582690
7521.359811	97.102264	63.285164	-6.816472
7521.363115	99.030960	64.044952	-8.394496
7521.366460	101.310326	66.090538	-9.504957
7521.369785	103.531250	66.967216	-9.504957
