time (s)	magX	magY	magZ
7458.110526	317.324341	-197.907059	-963.976013
7458.113858	327.376953	-203.576279	-943.227966
7458.117189	335.383972	-208.251907	-920.258911
7458.120526	344.209229	-212.576843	-898.751099
7458.123856	352.157776	-216.200470	-876.132690
7458.127191	359.054352	-219.531845	-853.923401
7458.130518	364.957336	-222.395676	-830.895996
7458.133855	369.925171	-225.201050	-809.037415
7458.137196	373.957886	-228.123306	-786.828186
7458.140517	378.107513	-229.876694	-764.034546
7458.143856	380.386902	-231.746933	-743.111023
7458.147183	383.075378	-232.857407	-721.486267
7458.150517	384.945648	-233.617172	-699.627686
7458.153846	385.880768	-234.727646	-679.756287
7458.157180	386.348328	-234.786087	-657.897705
7458.160521	386.406769	-235.253647	-637.734070
7458.163846	385.997650	-235.721207	-618.505554
7458.167180	385.413208	-234.902969	-598.984802
7458.171463	381.731140	-234.610733	-562.865601
7458.174739	379.860870	-233.734085	-544.396851
7458.178031	377.698395	-232.506729	-527.681458
7458.181382	375.068390	-231.454697	-511.550568
7458.184728	372.204559	-230.402695	-493.490936
7458.188054	369.749847	-228.707779	-477.418488
7458.190965	366.827576	-227.831100	-462.105804
7458.194299	362.677948	-226.720627	-446.500885
7458.197647	359.989471	-224.265930	-431.597351
7458.200942	356.541168	-222.571014	-417.687317
7458.204281	353.209808	-220.583862	-403.426666
7458.207184	348.826416	-218.830505	-389.692017
7458.210514	344.618347	-217.018692	-375.782013
7458.213844	341.462280	-214.271759	-363.157806
7458.217216	337.780243	-211.992401	-349.773834
7458.220516	333.630615	-209.362366	-337.967865
7458.223843	329.364105	-207.375214	-326.045013
7458.227172	324.980682	-205.212738	-313.654602
7458.230508	320.655762	-201.530670	-302.491516
7458.233846	316.389221	-199.368210	-291.153137
7458.237179	312.005829	-196.679703	-280.691406
7458.240508	308.557556	-193.874329	-270.346588
7458.243839	304.115723	-190.835190	-261.638245
7458.247180	299.323212	-188.906479	-251.936279
7458.250508	294.939789	-185.633545	-241.649902
7458.253843	290.731720	-183.412628	-233.584442
7458.257178	286.231445	-180.665680	-224.876083
7458.260533	282.140259	-177.860306	-216.343079
7458.263842	278.049103	-175.580948	-208.336060
7458.267174	273.957916	-172.717117	-202.082397
7458.270508	269.925171	-169.970200	-194.192276
7458.273840	265.600250	-167.457047	-187.178848
7458.277175	261.742828	-165.294556	-181.217407
7458.280507	257.768555	-162.898300	-174.905319
7458.283835	254.378723	-160.560486	-168.710098
7458.287169	250.638214	-158.573334	-163.508469
7458.290507	246.371704	-156.352417	-158.073044
7458.293835	242.631195	-154.073059	-152.929855
7458.297169	239.475159	-152.611923	-148.721802
7458.301898	232.520172	-148.871414	-139.662781
7458.304814	229.422546	-146.825821	-134.870255
7458.308103	226.266510	-144.897141	-130.720642
7458.311354	223.285797	-143.202225	-127.097015
7458.314689	219.603729	-142.267090	-124.057861
7458.318023	216.915253	-140.396851	-120.434250
7458.321376	213.992981	-138.585022	-115.992401
7458.324263	211.070709	-136.890121	-113.713028
7458.327615	208.323792	-135.428986	-110.030975
7458.330951	206.453522	-134.026306	-107.459381
7458.334288	203.180603	-132.740494	-104.712448
7458.337589	200.842773	-130.461136	-101.614853
7458.340503	198.212738	-130.052017	-98.692581
7458.343833	196.050262	-127.363533	-95.594971
7458.347195	193.653992	-126.837517	-93.783173
7458.350498	191.140839	-124.967278	-91.211578
7458.353837	189.153717	-124.441277	-89.282883
7458.357163	186.406769	-122.921684	-86.711288
7458.360496	183.659851	-121.051430	-83.496788
7458.363833	182.198700	-119.648750	-81.042084
7458.367164	180.153107	-118.187614	-79.347168
7458.370491	178.224426	-117.544716	-77.067795
7458.373828	176.120392	-116.142021	-75.840446
7458.377160	174.542358	-114.447105	-72.567505
7458.380501	172.263000	-112.985970	-70.521912
7458.383830	170.451202	-111.641731	-69.060783
7458.387164	168.171814	-110.881935	-66.956757
7458.390493	166.301575	-109.888374	-64.852722
7458.393823	164.957336	-108.953239	-63.333141
7458.397212	162.736420	-107.141441	-61.872005
7458.400507	161.450623	-106.264763	-60.586208
7458.403824	160.047913	-105.504967	-58.657513
7458.407155	158.528336	-104.803627	-57.663940
7458.410498	157.300995	-103.634727	-55.676800
7458.413827	155.606079	-103.167152	-55.092346
7458.417152	154.086487	-102.173592	-54.157219
7458.420516	152.859146	-102.056694	-53.280537
7458.423823	151.807129	-101.296913	-51.702515
7458.427156	150.404449	-100.361778	-51.936295
7458.430495	149.761536	-99.660439	-50.182934
7458.434701	147.599060	-98.842201	-48.897137
7458.438025	146.547058	-98.082420	-48.604912
7458.441416	145.670364	-97.907066	-47.669785
7458.444767	144.092346	-97.322624	-47.026886
7458.448007	143.800110	-97.205727	-46.033314
7458.450945	142.923431	-97.205727	-46.851547
7458.454248	141.637634	-96.270599	-45.857979
7458.457582	141.462311	-95.919937	-45.331970
7458.460905	140.994736	-96.036819	-44.864410
7458.464265	139.942719	-95.919937	-44.221512
7458.467576	139.592041	-95.160141	-42.760376
7458.470490	138.832260	-95.101692	-43.227936
7458.473822	137.897125	-94.400352	-42.234367
7458.477157	137.312683	-94.166573	-42.468147
7458.480485	137.078888	-94.166573	-42.409702
7458.483827	136.728226	-93.757454	-41.766804
7458.487149	135.500885	-93.640556	-41.942139
7458.490482	135.734650	-92.939217	-40.831680
7458.493849	134.799530	-93.523674	-39.838108
7458.497148	134.741089	-93.172997	-40.130333
7458.500482	134.390411	-92.413216	-40.071888
7458.503823	134.098175	-92.588547	-39.428989
7458.507173	133.805969	-92.354767	-39.078316
7458.510486	133.163055	-92.354767	-39.195210
7458.513814	132.870834	-91.478088	-39.370544
7458.517146	132.929276	-91.653427	-38.435417
7458.520492	132.695496	-91.945656	-37.675629
7458.523813	132.344818	-91.478088	-38.084747
7458.527150	131.643478	-91.711876	-37.500294
7458.530481	131.643478	-91.419640	-37.266510
7458.533812	131.117462	-91.244308	-38.026299
7458.537175	131.292816	-91.653427	-37.792519
7458.540476	131.059021	-91.361198	-37.441849
7458.543813	131.117462	-91.419640	-37.032730
7458.547152	131.117462	-91.711876	-37.967857
7458.550490	131.585037	-92.179436	-37.734074
7458.553816	131.234375	-92.588547	-37.734074
7458.557144	131.234375	-92.413216	-37.967857
7458.560476	131.234375	-93.348343	-37.967857
7458.565106	131.935699	-93.465225	-38.902985
7458.568030	132.111038	-93.640556	-38.961426
7458.571352	132.578613	-94.867912	-38.961426
7458.574734	132.753937	-95.335480	-39.838108
7458.578068	133.513733	-95.686157	-40.130333
7458.580952	133.805969	-96.679726	-40.714790
7458.584239	133.630615	-96.504387	-40.831680
7458.587565	134.916412	-97.147293	-40.890121
7458.590903	135.091766	-98.023964	-41.825249
7458.594247	135.676208	-98.491539	-42.292812
7458.597562	136.845123	-99.075981	-43.403275
7458.600469	137.429565	-100.127998	-43.929283
7458.603803	138.306244	-100.887794	-44.922852
7458.607136	138.423141	-101.998253	-45.390415
7458.610475	138.715363	-102.290474	-46.325539
7458.613799	139.650482	-102.699593	-46.968437
7458.617136	140.293396	-103.517830	-47.085331
7458.620473	141.637634	-104.219170	-47.786674
7458.623816	141.696075	-105.212746	-48.488022
7458.627142	142.864990	-105.446526	-49.656929
7458.630472	143.683228	-106.264763	-50.884277
7458.633807	144.735229	-106.673882	-51.176506
7458.637138	145.611923	-108.076561	-51.702515
7458.640465	146.547058	-108.310341	-52.520748
7458.643801	147.599060	-108.953239	-53.455872
7458.647140	148.767975	-110.531273	-53.981880
7458.650473	149.644653	-111.057274	-55.209236
7458.653804	150.462891	-112.050850	-56.378143
7458.657136	151.105774	-113.453545	-57.430161
7458.660468	152.683807	-114.797783	-58.715958
7458.663802	153.969604	-115.440681	-59.300411
7458.667153	155.196960	-116.025139	-60.001755
7458.670466	156.424316	-117.953835	-62.164230
7458.673799	157.534775	-119.473412	-63.274696
7458.677131	158.879013	-120.350090	-64.443604
7458.680465	160.106369	-121.928108	-66.430740
7458.683798	161.859726	-123.389244	-67.307419
7458.687132	163.379303	-124.733482	-69.762131
7458.690469	164.372894	-126.486855	-71.690826
7458.694707	167.528931	-129.701340	-75.255997
7458.697981	169.165405	-131.279358	-77.944473
7458.701308	170.801865	-134.026306	-79.347168
7458.704647	173.022797	-135.312088	-81.684982
7458.708000	175.360596	-136.890121	-84.548798
7458.710926	176.880188	-139.227936	-87.061951
7458.714253	178.458221	-141.390411	-89.633545
7458.717586	181.088257	-143.611328	-92.848038
7458.720907	182.549377	-145.423141	-95.653427
7458.724247	184.828766	-148.403854	-97.815903
7458.727554	186.699005	-150.566330	-100.796616
7458.730455	188.919922	-152.787247	-104.244888
7458.733793	190.731750	-154.715958	-107.400940
7458.737126	193.537109	-156.936874	-111.258331
7458.740459	195.582703	-159.859146	-114.589722
7458.743792	197.803619	-162.080078	-118.271774
7458.747153	199.966095	-164.885452	-122.421387
7458.750464	202.596130	-166.580353	-126.220337
7458.753793	204.817078	-169.736404	-130.136169
7458.757125	207.388672	-171.898880	-134.110458
7458.760454	209.492706	-174.645828	-138.026306
7458.763787	212.298065	-177.158981	-143.344833
7458.767124	214.460541	-179.672119	-148.078903
7458.770448	217.616577	-182.302170	-152.403854
7458.773785	220.246643	-185.575104	-156.845703
7458.777124	222.292206	-188.088242	-161.638214
7458.780473	224.863800	-191.185852	-167.190536
7458.783787	228.136749	-193.699005	-172.158386
7458.787121	230.766785	-196.913498	-178.645813
7458.790494	233.630615	-199.835770	-183.964340
7458.793791	235.968445	-203.108719	-190.568665
7458.797128	238.832245	-206.030960	-196.646988
7458.800453	241.170074	-208.953232	-204.654007
7458.803790	244.033905	-212.635300	-211.082993
7458.807115	246.313263	-215.849808	-217.804214
7458.810451	249.001740	-219.999405	-225.285217
7458.813785	251.865570	-223.798370	-233.409103
7458.817122	254.261841	-226.662186	-242.117462
7458.821818	259.463470	-235.428970	-258.540619
7458.824778	261.801270	-239.227951	-268.417877
7458.828048	263.846863	-242.676193	-277.184692
7458.831376	267.061371	-247.118057	-287.412628
7458.834680	268.990051	-251.384567	-297.932800
7458.837963	271.035645	-255.241959	-309.329651
7458.840884	273.548798	-260.034515	-320.668030
7458.844216	275.594391	-264.417908	-332.649323
7458.847538	277.815308	-268.801300	-345.507324
7458.850869	279.627106	-273.769165	-357.605499
7458.854230	280.912903	-278.210999	-370.697266
7458.857113	282.900055	-282.185272	-384.841034
7458.860452	283.835175	-287.328461	-398.458801
7458.863779	286.056091	-291.711853	-413.420837
7458.867109	287.283447	-296.329071	-426.921722
7458.870447	287.751007	-300.829346	-443.286377
7458.873780	289.387512	-305.154327	-459.358887
7458.877137	289.738159	-308.602600	-474.963776
7458.880446	290.556396	-313.219788	-491.796021
7458.883776	290.381073	-317.135620	-509.680328
7458.887109	290.439484	-320.759216	-525.694336
7458.890448	290.147278	-324.265961	-542.818848
7458.893776	289.036804	-328.532440	-560.878418
7458.897113	289.153717	-332.389832	-579.405579
7458.900442	287.751007	-334.844543	-597.406799
7458.903777	285.296295	-338.701935	-616.226196
7458.907109	284.711884	-341.507294	-635.396240
7458.910445	281.438934	-345.130920	-654.332520
7458.913778	278.282867	-347.468750	-674.203979
7458.917111	275.535950	-349.864990	-693.666260
7458.920450	271.912323	-352.845703	-713.303894
7458.923769	267.061371	-355.300415	-734.168945
7458.927113	261.333710	-356.469330	-754.098816
7458.930449	256.716553	-358.398010	-773.619507
7458.933773	249.761536	-360.151367	-793.958557
7458.937103	243.157227	-361.437195	-815.524902
7458.940443	235.150208	-362.138519	-836.272888
7458.943774	226.909424	-362.606079	-856.378174
7458.947101	218.084167	-363.190552	-877.418518
7458.950468	208.382233	-362.898315	-912.193481
7458.955060	186.114563	-362.021637	-936.623596
7458.957975	174.191711	-360.560516	-955.793701
7458.961326	161.450623	-358.164246	-974.788452
7458.964714	147.540619	-355.709534	-992.672729
7458.968024	134.039734	-353.663971	-1008.219177
7458.971291	119.019287	-349.748108	-1025.402100
7458.974197	102.888367	-346.066071	-1041.240723
7458.977533	86.815895	-341.799530	-1056.202759
7458.980858	70.217415	-336.539459	-1069.703735
7458.984197	52.450027	-330.578033	-1082.444824
7458.987533	34.799530	-324.558167	-1093.081909
7458.990432	16.739914	-317.603180	-1103.777344
7458.993784	-1.495033	-310.648163	-1112.368774
7458.997098	-20.080658	-302.348938	-1120.551147
7459.000435	-39.016953	-293.640564	-1124.583862
7459.003766	-57.953255	-285.049103	-1130.837524
7459.007105	-76.772652	-274.587372	-1133.876709
7459.010468	-96.001167	-264.943909	-1135.688477
7459.013770	-114.528343	-254.657516	-1137.032715
7459.017100	-133.406189	-244.195786	-1135.805420
7459.020431	-151.816467	-233.324966	-1133.876709
7459.023797	-169.934540	-222.103455	-1130.428467
7459.027094	-187.526611	-210.122147	-1125.986572
7459.030430	-205.293976	-198.900650	-1120.375854
7459.033765	-222.593811	-186.276428	-1114.239014
7459.037101	-239.952087	-174.353592	-1105.238403
7459.040428	-256.316772	-161.904724	-1094.776733
7459.043759	-272.623047	-149.689651	-1084.548706
7459.047099	-287.877258	-136.714783	-1073.619507
7459.050434	-302.547058	-124.382820	-1060.410889
7459.053759	-317.450623	-111.992393	-1046.676270
7459.057094	-331.945068	-100.127998	-1032.240234
7459.060426	-345.212158	-87.796028	-1016.518433
7459.063763	-357.485687	-75.464066	-1001.030334
7459.067100	-370.635925	-63.482758	-983.847412
7459.070420	-382.091156	-52.027473	-965.261841
7459.073792	-393.371124	-40.455292	-947.202209
7459.077090	-403.949768	-29.350672	-927.798401
7459.080426	-413.184082	-18.246054	-908.803650
7459.085056	-431.185272	2.560490	-867.073608
7459.087945	-438.724731	11.794855	-845.682617
7459.091300	-445.971954	22.022793	-824.525452
7459.094626	-451.582703	30.848040	-802.433044
7459.098017	-457.661041	40.900642	-781.100525
7459.101358	-461.810638	49.199883	-759.300415
7459.104266	-465.960297	57.557568	-737.266479
7459.107511	-468.824066	65.038574	-715.700195
7459.110867	-471.045013	71.935127	-694.309204
7459.114183	-472.272369	79.240791	-672.216858
7459.117521	-473.733490	85.728233	-651.527161
7459.120840	-474.259491	92.507889	-630.311523
7459.123755	-474.259491	98.352417	-610.147888
7459.127085	-473.499725	103.378716	-589.049133
7459.130418	-472.155487	108.755699	-569.411499
7459.133756	-470.460602	113.548210	-550.241394
7459.137086	-467.888947	118.282288	-531.947998
7459.140416	-465.258881	122.081238	-512.251892
7459.143755	-462.453522	126.172409	-493.900055
7459.147103	-459.414398	129.153122	-476.541809
7459.150463	-455.498535	132.426071	-459.592651
7459.153757	-451.290497	135.056107	-442.468170
7459.157084	-447.082397	137.627701	-426.921722
7459.160416	-443.283478	140.082413	-411.667450
7459.163751	-438.140259	141.894226	-397.056122
7459.167084	-433.815308	143.121567	-382.269440
7459.170416	-428.438354	145.108704	-367.073669
7459.173752	-422.476929	145.926941	-353.923462
7459.177082	-417.567505	146.803635	-340.890137
7459.180417	-412.307434	147.797195	-328.324371
7459.183749	-406.404480	147.914093	-315.758636
7459.187082	-401.202789	148.206314	-304.186462
7459.190431	-396.293427	148.089417	-292.088257
7459.193741	-390.565765	147.855637	-281.217438
7459.197080	-385.130341	147.797195	-270.638824
7459.200410	-379.519592	148.264755	-260.469330
7459.203744	-373.558167	146.569839	-250.007599
7459.207080	-367.947418	146.511398	-239.896545
7459.210411	-361.985992	145.868500	-229.493271
7459.213748	-356.784363	144.816483	-220.960251
7459.218350	-344.861511	142.654007	-202.374634
7459.221265	-339.659851	140.900650	-193.724716
7459.224590	-334.107544	140.082413	-186.302170
7459.227956	-328.964355	138.504379	-177.769135
7459.231289	-322.652252	137.277023	-169.879013
7459.234239	-317.158386	135.465225	-162.105774
7459.237531	-312.190552	133.711868	-155.150787
7459.240897	-306.112213	133.302750	-147.903564
7459.244170	-300.150787	131.490952	-140.773239
7459.247498	-294.773834	129.796021	-134.168900
7459.250833	-289.455292	128.685562	-128.324371
7459.253741	-284.136780	127.282867	-122.772064
7459.257077	-278.818237	125.295731	-116.985977
7459.260406	-273.733490	124.068382	-111.433670
7459.263743	-269.174774	123.016365	-106.465805
7459.267069	-264.323792	120.912323	-100.855057
7459.270410	-259.297485	119.977203	-96.471664
7459.273741	-254.621857	117.873169	-92.088257
7459.277084	-250.706024	117.405609	-88.289307
7459.280404	-246.556396	115.301575	-84.256577
7459.283738	-241.705444	114.658676	-80.516068
7459.287070	-237.263611	113.080650	-76.717117
7459.290411	-233.756866	112.145523	-72.976624
7459.293735	-229.782593	110.918167	-69.586792
7459.297076	-226.568085	109.866158	-67.658096
7459.300405	-222.827606	108.463463	-64.268265
7459.303731	-218.794861	107.294563	-61.170662
7459.307074	-215.405029	106.593216	-58.423729
7459.310402	-212.365875	105.132088	-56.027470
7459.313734	-209.151398	104.138512	-53.046757
7459.317069	-205.469330	102.911156	-50.708942
7459.320442	-202.254822	101.157799	-48.955582
7459.323736	-199.858551	100.164230	-46.559322
7459.327073	-196.702515	99.404434	-45.098190
7459.330402	-194.306274	98.352417	-42.643486
7459.333735	-191.851562	97.475746	-41.065460
7459.337064	-188.169495	96.482170	-39.253654
7459.340405	-186.533051	95.663933	-36.740501
7459.343732	-183.435425	94.319695	-34.870255
7459.347981	-178.175354	92.215660	-31.421976
7459.351343	-175.603729	90.929863	-30.428406
7459.354580	-173.441254	90.286964	-27.389248
7459.357931	-170.811218	88.241379	-26.629457
7459.361242	-168.824097	88.124489	-25.518995
7459.364641	-166.953827	87.014030	-23.590300
7459.367486	-164.382233	86.137344	-21.252485
7459.370849	-161.869080	85.143768	-20.492695
7459.374179	-160.115723	84.208649	-18.447107
7459.377508	-157.368805	83.098190	-16.985973
7459.380878	-156.258331	81.403267	-16.752193
7459.384165	-154.329620	80.994156	-15.174168
7459.387061	-151.758026	80.760376	-13.245472
7459.390390	-150.121552	79.240791	-12.544127
7459.393724	-148.660431	79.007011	-11.082994
7459.397060	-146.614838	78.597893	-10.790767
7459.400391	-144.452362	77.370544	-10.381649
7459.403733	-143.283478	76.669197	-9.212742
7459.407092	-141.530090	76.026299	-8.277617
7459.410396	-140.711884	75.383400	-7.926945
7459.413725	-138.724731	74.857391	-6.465811
7459.417060	-137.088257	74.740501	-5.939802
7459.420393	-135.627106	73.980713	-5.413794
7459.423723	-134.633545	73.688484	-4.654005
7459.427064	-133.639984	73.104034	-4.654005
7459.430387	-131.886627	73.396255	-4.011106
7459.433720	-130.659271	72.344246	-3.894215
7459.437054	-130.308594	71.935127	-2.666862
7459.440396	-129.490356	71.642899	-2.140856
7459.443723	-128.204559	71.116890	-2.199301
7459.447059	-127.094109	71.000000	-1.439510
7459.450429	-125.866753	71.058441	-1.907074
7459.453727	-125.165398	70.357101	-1.790182
7459.457056	-124.347160	69.421974	-0.329048
7459.460396	-123.236702	69.597305	-0.445938
7459.463720	-123.412041	69.071304	0.372295
7459.467052	-122.593803	68.720627	0.138515
7459.470384	-121.717125	68.603737	0.547632
7459.473724	-120.606667	68.253067	0.255405
7459.477054	-120.022209	67.376389	0.722967
7459.481724	-118.970192	67.434830	1.424313
7459.484695	-118.327293	66.967270	1.190531
7459.487994	-117.392174	66.675041	2.359438
7459.491318	-117.099937	66.382812	2.125656
7459.494610	-116.983055	66.265923	2.768555
7459.497899	-116.106361	65.447693	2.067211
7459.500819	-115.755699	65.506134	2.359438
7459.504151	-115.054359	65.447693	2.710110
7459.507471	-114.703682	65.213905	3.177673
7459.510800	-114.353020	65.681473	3.294563
7459.514167	-113.710121	64.863235	3.645237
