time (s)	det(V)
6618.513374	-1.617720	
6618.514991	-1.617728	
6618.516563	-1.617555	
6618.518191	-1.617724	
6618.519701	-1.617603	
6618.521366	-1.617632	
6618.522851	-1.617519	
6618.524567	-1.617736	
6618.526039	-1.617539	
6618.527767	-1.617656	
6618.529291	-1.615883	
6618.531021	-1.525802	
6618.532522	-1.422109	
6618.534279	-1.328221	
6618.535758	-1.265500	
6618.537527	-1.201905	
6618.539019	-1.134213	
6618.540797	-1.058871	
6618.542273	-0.996469	
6618.544056	-0.913481	
6618.545543	-0.846188	
6618.547291	-0.781727	
6618.548792	-0.729874	
6618.550539	-0.672870	
6618.552062	-0.640301	
6618.553793	-0.607422	
6618.555328	-0.562743	
6618.557049	-0.521127	
6618.558586	-0.485718	
6618.560292	-0.439771	
6618.561844	-0.390690	
6618.563527	-0.359813	
6618.565082	-0.326019	
6618.566715	-0.295678	
6618.568310	-0.275532	
6618.569959	-0.265171	
6618.571552	-0.241964	
6618.573174	-0.217279	
6618.574783	-0.201351	
6618.576385	-0.177906	
6618.578053	-0.134412	
6618.579624	-0.107785	
6618.581317	-0.087655	
6618.582880	-0.063816	
6618.584563	-0.048911	
6618.586127	-0.048685	
6618.587823	-0.033805	
6618.589384	-0.013961	
6618.591108	-0.004801	
6618.592642	0.014511	
6618.594370	0.054202	
6618.595890	0.078839	
6618.597647	0.090787	
6618.599129	0.108528	
6618.600912	0.125777	
6618.602402	0.131046	
6618.604175	0.113108	
6618.605658	0.135667	
6618.607441	0.132363	
6618.608917	0.139147	
6618.610696	0.157722	
6618.612192	0.191701	
6618.613938	0.193908	
6618.615448	0.197397	
6618.617200	0.213304	
6618.618715	0.207592	
6618.620456	0.191419	
6618.621980	0.198710	
6618.623501	0.194931	
6618.625096	0.186641	
6618.626587	0.204164	
6618.628218	0.229760	
6618.629737	0.229530	
6618.631382	0.225236	
6618.632862	0.238361	
6618.634523	0.244488	
6618.635994	0.219774	
6618.637631	0.214807	
6618.639112	0.219158	
6618.640751	0.217494	
6618.642223	0.206827	
6618.643879	0.219512	
6618.645380	0.241571	
6618.647030	0.234743	
6618.648580	0.231774	
6618.650188	0.243142	
6618.651775	0.233446	
6618.653341	0.210243	
6618.654959	0.214158	
6618.656509	0.212144	
6618.658150	0.204486	
6618.659770	0.202702	
6618.661404	0.220954	
6618.663005	0.221196	
6618.664688	0.228910	
6618.666256	0.224906	
6618.667928	0.224390	
6618.669484	0.188059	
6618.671189	0.185090	
6618.672746	0.184889	
6618.674446	0.170967	
6618.676008	0.168775	
6618.677715	0.190613	
6618.679232	0.190681	
6618.680985	0.187942	
6618.682470	0.184200	
6618.684244	0.179575	
6618.685724	0.166302	
6618.687486	0.145177	
6618.688971	0.156312	
6618.690737	0.141902	
6618.692219	0.137181	
6618.693995	0.149927	
6618.695485	0.164111	
6618.697216	0.150728	
6618.698726	0.150451	
6618.700452	0.166785	
6618.701979	0.145045	
6618.703696	0.121922	
6618.705238	0.126913	
6618.706932	0.121084	
6618.708489	0.112242	
6618.710180	0.121966	
6618.711748	0.137898	
6618.713422	0.132307	
6618.715007	0.133544	
6618.716680	0.139344	
6618.718275	0.121257	
6618.719891	0.107456	
6618.721510	0.108810	
6618.723143	0.116222	
6618.724761	0.107178	
6618.726365	0.116637	
6618.728022	0.128778	
6618.729610	0.135320	
6618.731304	0.136976	
6618.732872	0.138607	
6618.734566	0.134434	
6618.736124	0.115469	
6618.737811	0.113926	
6618.739359	0.106635	
6618.741052	0.100383	
6618.742568	0.101100	
6618.744344	0.123755	
6618.745832	0.123835	
6618.747590	0.121608	
6618.749069	0.129399	
6618.750858	0.132545	
6618.752340	0.119187	
6618.753844	0.107513	
6618.755411	0.097144	
6618.756962	0.093281	
6618.758567	0.087544	
6618.760054	0.095508	
6618.761716	0.119545	
6618.763197	0.117084	
6618.764821	0.110780	
6618.766348	0.117813	
6618.767977	0.111811	
6618.769454	0.092769	
6618.771091	0.083649	
6618.772572	0.086715	
6618.774294	0.076986	
6618.775791	0.073647	
6618.777510	0.088692	
6618.778995	0.106171	
6618.780709	0.099480	
6618.782187	0.095154	
6618.783868	0.101398	
6618.785369	0.084604	
6618.787007	0.068317	
6618.788551	0.067266	
6618.790254	0.073896	
6618.791808	0.059052	
6618.793494	0.070134	
6618.795065	0.086682	
6618.796722	0.088523	
6618.798310	0.079121	
6618.799955	0.080064	
6618.801551	0.079363	
6618.803200	0.059705	
6618.804824	0.062533	
6618.806426	0.055676	
6618.808102	0.043084	
6618.809708	0.044872	
6618.811368	0.060833	
6618.812980	0.060321	
6618.814624	0.055604	
6618.816191	0.058520	
6618.817891	0.063298	
6618.819444	0.040554	
6618.821159	0.017677	
6618.822701	0.025625	
6618.824391	0.020880	
6618.825912	0.015369	
6618.827631	0.031941	
6618.829124	0.047688	
6618.830895	0.049541	
6618.832376	0.050874	
6618.834161	0.044280	
6618.835636	0.028936	
6618.837415	0.013145	
6618.838896	0.009540	
6618.840627	-0.002025	
6618.842127	-0.001792	
6618.843849	0.005733	
6618.845374	0.021895	
6618.847102	0.023849	
6618.848629	0.024908	
6618.850320	0.032445	
6618.851853	0.023063	
6618.853544	0.003449	
6618.855108	-0.001187	
6618.856764	-0.001905	
6618.858333	-0.010807	
6618.859979	-0.009002	
6618.861576	0.015715	
6618.863214	0.017323	
6618.864824	0.014096	
6618.866443	0.022201	
6618.868090	0.009822	
6618.869692	-0.005667	
6618.871359	-0.014312	
6618.872938	-0.010686	
6618.874619	-0.015649	
6618.876185	-0.020016	
6618.877871	0.002865	
6618.879430	0.004283	
6618.881113	0.004944	
6618.882605	0.008605	
6618.884152	0.003078	
6618.885653	-0.007770	
6618.887236	-0.020181	
6618.888752	-0.020785	
6618.890317	-0.021841	
6618.891863	-0.030046	
6618.893353	-0.021599	
6618.895013	-0.007351	
6618.896509	-0.002521	
6618.898124	-0.006154	
6618.899645	-0.002738	
6618.901274	-0.002892	
6618.902752	-0.024161	
6618.904481	-0.029595	
6618.905949	-0.029092	
6618.907671	-0.036874	
6618.909168	-0.041668	
6618.910867	-0.027154	
6618.912344	-0.014227	
6618.914042	-0.016709	
6618.915515	-0.009131	
6618.917183	-0.008878	
6618.918692	-0.021365	
6618.920410	-0.043082	
6618.921948	-0.042989	
6618.923671	-0.040057	
6618.925202	-0.051864	
6618.926894	-0.039956	
6618.928446	-0.028721	
6618.930131	-0.030933	
6618.931705	-0.027335	
6618.933361	-0.025152	
6618.934954	-0.032886	
6618.936591	-0.054059	
6618.938200	-0.057314	
6618.939821	-0.060823	
6618.941437	-0.067284	
6618.943069	-0.066132	
6618.944746	-0.047376	
6618.946330	-0.044919	
6618.947995	-0.045185	
6618.949576	-0.048424	
6618.951262	-0.046349	
6618.952829	-0.069367	
6618.954503	-0.076098	
6618.956054	-0.075268	
6618.957742	-0.086435	
6618.959272	-0.090955	
6618.961001	-0.071192	
6618.962501	-0.065447	
6618.964264	-0.067131	
6618.965748	-0.066567	
6618.967511	-0.068017	
6618.968996	-0.081923	
6618.970771	-0.100639	
6618.972258	-0.096437	
6618.974053	-0.104417	
6618.975530	-0.112776	
6618.977284	-0.102137	
6618.978780	-0.084542	
6618.980542	-0.086475	
6618.982057	-0.086145	
6618.983766	-0.088264	
6618.985288	-0.097916	
6618.987003	-0.117247	
6618.988545	-0.114794	
6618.990247	-0.120708	
6618.991802	-0.125075	
6618.993501	-0.118311	
6618.995058	-0.102532	
6618.996730	-0.103269	
6618.998308	-0.106794	
6618.999949	-0.098717	
6619.001558	-0.107563	
6619.003190	-0.127765	
6619.004802	-0.134505	
6619.006428	-0.131673	
6619.008081	-0.139548	
6619.009674	-0.137107	
6619.011343	-0.118428	
6619.012817	-0.115821	
6619.014393	-0.119511	
6619.015872	-0.116208	
6619.017508	-0.112679	
6619.018987	-0.134428	
6619.020618	-0.146763	
6619.022111	-0.150352	
6619.023681	-0.151581	
6619.025231	-0.154590	
6619.026751	-0.153680	
6619.028400	-0.132475	
6619.029881	-0.135693	
6619.031519	-0.140648	
6619.033045	-0.138356	
6619.034716	-0.142525	
6619.036191	-0.159476	
6619.037909	-0.171304	
6619.039382	-0.171718	
6619.041075	-0.181535	
6619.042549	-0.182071	
6619.044244	-0.166574	
6619.045732	-0.157478	
6619.047442	-0.160914	
6619.048939	-0.160338	
6619.050627	-0.158409	
6619.052129	-0.174965	
6619.053852	-0.191985	
6619.055364	-0.188633	
6619.057095	-0.196895	
6619.058633	-0.202019	
6619.060330	-0.187654	
6619.061865	-0.181817	
6619.063548	-0.173708	
6619.065108	-0.183211	
6619.066779	-0.174164	
6619.068341	-0.182148	
6619.070013	-0.203623	
6619.071593	-0.215498	
6619.073247	-0.214608	
6619.074850	-0.217061	
6619.076470	-0.213504	
6619.078098	-0.196549	
6619.079721	-0.198720	
6619.081370	-0.201544	
6619.082968	-0.202386	
6619.084619	-0.207808	
6619.086205	-0.224795	
6619.087906	-0.238170	
6619.089461	-0.236743	
6619.091175	-0.247133	
6619.092726	-0.252998	
6619.094447	-0.232131	
6619.095998	-0.230463	
6619.097673	-0.233867	
6619.099200	-0.231301	
6619.100959	-0.231475	
6619.102434	-0.252531	
6619.104203	-0.267621	
6619.105683	-0.268950	
6619.107466	-0.274779	
6619.108950	-0.277301	
6619.110710	-0.266537	
6619.112190	-0.253070	
6619.113932	-0.254472	
6619.115431	-0.254198	
6619.117174	-0.249110	
6619.118682	-0.261087	
6619.120407	-0.279939	
6619.121936	-0.273413	
6619.123653	-0.273232	
6619.125185	-0.281740	
6619.126873	-0.266223	
6619.128443	-0.248454	
6619.130107	-0.244953	
6619.131683	-0.239007	
6619.133362	-0.232051	
6619.134934	-0.236393	
6619.136584	-0.248619	
6619.138157	-0.241267	
6619.139783	-0.240812	
6619.141418	-0.239289	
6619.143012	-0.225589	
6619.144693	-0.203317	
6619.146171	-0.190768	
6619.147810	-0.179336	
6619.149282	-0.167606	
6619.150916	-0.152673	
6619.152399	-0.158554	
6619.154021	-0.157345	
6619.155517	-0.141272	
6619.157097	-0.132990	
6619.158637	-0.116329	
6619.160178	-0.091390	
6619.161780	-0.057572	
6619.163273	-0.035730	
6619.164915	-0.010344	
6619.166479	0.023832	
6619.168115	0.048441	
6619.169604	0.060438	
6619.171316	0.087158	
6619.172807	0.119847	
6619.174551	0.149383	
6619.176020	0.182601	
6619.177738	0.244226	
6619.179219	0.296731	
6619.180926	0.338831	
6619.182404	0.381596	
6619.184166	0.428175	
6619.185656	0.447604	
6619.187433	0.491770	
6619.188924	0.538527	
6619.190736	0.582721	
6619.192212	0.628374	
6619.193976	0.701920	
6619.195472	0.767875	
6619.197212	0.821996	
6619.198719	0.881760	
6619.200456	0.944549	
6619.201983	0.989397	
6619.203708	1.040194	
6619.205235	1.107036	
6619.206960	1.169035	
6619.208503	1.227829	
6619.210197	1.318240	
6619.211758	1.410429	
6619.213436	1.485525	
6619.215004	1.564387	
6619.216661	1.622121	
6619.218264	1.636514	
6619.219907	1.636764	
6619.221498	1.636663	
6619.223137	1.636812	
6619.224751	1.636655	
6619.226361	1.636824	
6619.228044	1.636494	
6619.229628	1.636905	
6619.231302	1.636780	
6619.232898	1.636812	
6619.234551	1.636631	
6619.236143	1.636659	
6619.237827	1.636603	
6619.239390	1.636804	
6619.241100	1.636792	
6619.242645	1.636780	
6619.244356	1.636687	
6619.245883	1.636748	
6619.247612	1.636776	
6619.249100	1.636780	
6619.250850	1.636727	
6619.252343	1.636691	
6619.254099	1.636687	
6619.255576	1.636711	
6619.257375	1.636639	
6619.258850	1.636699	
6619.260613	1.636800	
6619.262108	1.636740	
6619.263841	1.636776	
6619.265354	1.636655	
6619.267093	1.636840	
6619.268626	1.636667	
6619.270348	1.636711	
6619.271880	1.636744	
6619.273581	1.636796	
6619.275161	1.636719	
6619.276649	1.636740	
6619.278322	1.636582	
6619.279808	1.636852	
6619.281425	1.636828	
6619.282947	1.636812	
6619.284600	1.636643	
6619.286077	1.636748	
6619.287718	1.636844	
6619.289195	1.636716	
6619.290840	1.636776	
6619.292324	1.636824	
6619.293943	1.636679	
6619.295450	1.636707	
6619.297141	1.636872	
6619.298667	1.636703	
6619.300314	1.636832	
6619.301865	1.636752	
6619.303488	1.636917	
6619.305036	1.636901	
6619.306627	1.636881	
6619.308230	1.636623	
6619.309771	1.636889	
6619.311393	1.636780	
6619.313021	1.637030	
6619.314680	1.636820	
6619.316270	1.636856	
6619.317945	1.636885	
6619.319536	1.636860	
6619.321201	1.636772	
6619.322773	1.636989	
6619.324446	1.636800	
6619.326000	1.636881	
6619.327720	1.636925	
6619.329257	1.636909	
6619.330979	1.636824	
6619.332496	1.636836	
6619.334244	1.636760	
6619.335719	1.636877	
6619.337500	1.636929	
6619.338995	1.636893	
6619.340787	1.636792	
6619.342266	1.636816	
6619.344056	1.636913	
6619.345529	1.636784	
6619.347293	1.636671	
6619.348780	1.636736	
6619.350515	1.636804	
6619.352026	1.636792	
6619.353747	1.636856	
6619.355279	1.636695	
6619.356998	1.636868	
6619.358530	1.636659	
6619.360226	1.636820	
6619.361768	1.636651	
6619.363455	1.636856	
6619.365016	1.636631	
6619.366692	1.636901	
6619.368290	1.636651	
6619.369943	1.636828	
6619.371536	1.636627	
6619.373176	1.636780	
6619.374769	1.636615	
6619.376397	1.636719	
6619.378030	1.636675	
6619.379633	1.636836	
6619.381305	1.636611	
6619.382872	1.636752	
6619.384542	1.636631	
6619.386114	1.635877	
6619.387800	1.363092	
6619.389363	0.968804	
6619.391043	0.570612	
6619.392601	0.204329	
6619.394329	-0.182490	
6619.395849	-0.532378	
6619.397585	-0.930549	
6619.399072	-1.267897	
6619.400821	-1.578791	
6619.402303	-1.617583	
6619.404078	-1.617688	
6619.405570	-1.617652	
6619.407372	-1.617640	
6619.408847	-1.617760	
6619.410448	-1.617656	
6619.411966	-1.617736	
6619.413508	-1.617599	
6619.415110	-1.617805	
6619.416611	-1.617680	
6619.418266	-1.617781	
6619.419755	-1.617801	
6619.421409	-1.617849	
6619.422895	-1.617748	
6619.424545	-1.617773	
6619.426015	-1.617905	
6619.427659	-1.617813	
6619.429135	-1.617901	
6619.430839	-1.617773	
6619.432316	-1.618026	
6619.434018	-1.617837	
6619.435500	-1.617998	
6619.437165	-1.618079	
6619.438677	-1.618272	
6619.440313	-1.618079	
6619.441851	-1.618252	
6619.443486	-1.618200	
6619.445049	-1.618260	
6619.446709	-1.617994	
6619.448284	-1.618236	
6619.449949	-1.618107	
6619.451544	-1.618308	
6619.453190	-1.618159	
6619.454804	-1.618232	
6619.456435	-1.618063	
6619.458050	-1.618256	
6619.459683	-1.618103	
6619.461338	-1.618204	
6619.462941	-1.618059	
6619.464597	-1.618204	
6619.466186	-1.618083	
6619.467885	-1.618244	
6619.469451	-1.618079	
6619.471141	-1.618188	
6619.472692	-1.618147	
6619.474393	-1.618248	
6619.475949	-1.618228	
6619.477650	-1.618212	
6619.479188	-1.618095	
6619.480924	-1.618191	
6619.482408	-1.618175	
6619.484196	-1.618272	
6619.485674	-1.618135	
6619.487434	-1.618216	
6619.488916	-1.618119	
6619.490692	-1.618079	
6619.492184	-1.618236	
6619.493972	-1.618159	
6619.495448	-1.618143	
6619.497206	-1.618087	
6619.498699	-1.618196	
6619.500431	-1.618151	
6619.501947	-1.618256	
6619.503687	-1.618083	
6619.505219	-1.618300	
6619.506928	-1.618107	
6619.508475	-1.618151	
6619.510187	-1.617905	
6619.511739	-1.618010	
6619.513413	-1.617781	
6619.514970	-1.617970	
6619.516635	-1.617724	
6619.518215	-1.617958	
6619.519844	-1.617716	
6619.521448	-1.617805	
6619.523083	-1.617720	
6619.524708	-1.617797	
6619.526323	-1.617756	
6619.527953	-1.617954	
6619.529543	-1.617660	
6619.531226	-1.617732	
6619.532797	-1.617632	
6619.534484	-1.617777	
6619.536033	-1.617692	
6619.537736	-1.617728	
6619.539218	-1.617861	
6619.540771	-1.617744	
6619.542262	-1.617905	
6619.543866	-1.617688	
6619.545394	-1.617785	
6619.546954	-1.617615	
6619.548506	-1.617736	
6619.550005	-1.617680	
6619.551638	-1.617700	
6619.553125	-1.617736	
6619.554760	-1.617813	
6619.556284	-1.617744	
6619.557923	-1.617829	
6619.559399	-1.617603	
6619.561108	-1.617624	
6619.562589	-1.617583	
6619.564303	-1.617615	
6619.565798	-1.617696	
6619.567525	-1.617628	
6619.569009	-1.617704	
6619.570710	-1.617599	
6619.572187	-1.617615	
6619.573894	-1.617563	
6619.575392	-1.617672	
6619.577123	-1.617567	
6619.578640	-1.617660	
6619.580367	-1.617535	
6619.581901	-1.617624	
6619.583614	-1.617483	
6619.585157	-1.617632	
6619.586866	-1.617620	
6619.588414	-1.617700	
6619.590092	-1.615489	
6619.591647	-1.550161	
6619.593320	-1.441393	
6619.594915	-1.347428	
6619.596564	-1.270938	
6619.598169	-1.208221	
6619.599805	-1.137891	
6619.601412	-1.083049	
6619.603023	-1.041852	
6619.604655	-0.993262	
6619.606246	-0.930146	
6619.607924	-0.884316	
6619.609500	-0.830997	
6619.611204	-0.762552	
6619.612783	-0.712996	
6619.614454	-0.671746	
6619.616022	-0.626657	
6619.617724	-0.587655	
6619.619280	-0.573338	
6619.620989	-0.547182	
6619.622526	-0.509078	
6619.624247	-0.482350	
6619.625754	-0.458619	
6619.627530	-0.415311	
6619.629007	-0.388780	
6619.630793	-0.361549	
6619.632275	-0.341943	
6619.634052	-0.312013	
6619.635532	-0.305362	
6619.637325	-0.301507	
6619.638796	-0.283742	
6619.640562	-0.266086	
6619.642058	-0.252740	
6619.643810	-0.223289	
6619.645324	-0.199312	
6619.647072	-0.181499	
6619.648585	-0.171819	
6619.650319	-0.149228	
6619.651852	-0.152346	
6619.653552	-0.157857	
6619.655102	-0.151142	
6619.656798	-0.139391	
6619.658356	-0.140386	
6619.660044	-0.123499	
6619.661624	-0.095925	
6619.663292	-0.090878	
6619.664865	-0.084042	
6619.666511	-0.081697	
6619.668107	-0.077790	
6619.669632	-0.090628	
6619.671257	-0.093629	
6619.672740	-0.088135	
6619.674403	-0.096767	
6619.675869	-0.091664	
6619.677515	-0.070430	
6619.678990	-0.059135	
6619.680634	-0.058035	
6619.682117	-0.053902	
6619.683696	-0.049064	
6619.685227	-0.060291	
6619.686773	-0.076292	
6619.688362	-0.074221	
6619.689928	-0.074902	
6619.691529	-0.080002	
6619.693077	-0.071872	
6619.694704	-0.046208	
6619.696198	-0.041878	
6619.697912	-0.042401	
6619.699388	-0.036363	
6619.701101	-0.035561	
6619.702575	-0.048061	
6619.704293	-0.059038	
6619.705781	-0.054337	
6619.707501	-0.051481	
6619.708979	-0.056222	
6619.710755	-0.036947	
6619.712234	-0.016978	
6619.714012	-0.018159	
6619.715492	-0.010823	
6619.717236	-0.001856	
6619.718734	-0.014082	
6619.720477	-0.025434	
6619.721992	-0.019524	
6619.723710	-0.016761	
6619.725227	-0.023666	
6619.726947	-0.005836	
6619.728485	0.018108	
6619.730176	0.020388	
6619.731720	0.016271	
6619.733418	0.027925	
6619.734997	0.017113	
6619.736660	0.006652	
6619.738249	0.007824	
6619.739899	0.012473	
6619.741491	-0.000031	
6619.743135	0.012066	
6619.744749	0.039446	
6619.746362	0.045219	
6619.748012	0.049674	
6619.749621	0.048772	
6619.751284	0.052256	
6619.752878	0.028405	
6619.754523	0.035740	
6619.756104	0.030189	
6619.757778	0.032892	
6619.759348	0.031893	
6619.761068	0.056679	
6619.762605	0.066964	
6619.764308	0.067971	
6619.765835	0.066404	
6619.767567	0.076712	
6619.769070	0.052868	
6619.770830	0.055269	
6619.772320	0.044389	
6619.774117	0.040493	
6619.775602	0.034306	
6619.777385	0.051362	
6619.778862	0.058649	
6619.780642	0.070440	
6619.782119	0.072043	
6619.783892	0.075173	
6619.785391	0.060591	
6619.787157	0.044014	
6619.788667	0.037368	
6619.790381	0.039672	
6619.791907	0.039595	
6619.793624	0.056184	
6619.795157	0.068059	
6619.796844	0.064357	
6619.798394	0.058411	
6619.800059	0.065239	
6619.801654	0.056486	
6619.803154	0.037452	
6619.804799	0.026068	
6619.806314	0.023740	
6619.807948	0.026092	
6619.809435	0.025951	
6619.811078	0.045444	
6619.812568	0.037396	
6619.814193	0.031337	
6619.815693	0.032755	
6619.817349	0.047064	
6619.818837	0.029033	
6619.820441	0.016062	
6619.821947	0.008380	
6619.823592	0.000774	
6619.825130	-0.008579	
6619.826749	-0.006304	
6619.828316	0.016279	
6619.829898	0.015631	
6619.831520	0.017311	
6619.833063	0.021411	
6619.834692	0.015518	
6619.836173	-0.011762	
6619.837880	-0.011315	
6619.839352	-0.009478	
6619.841047	-0.022223	
6619.842600	-0.017889	
6619.844287	-0.001880	
6619.845818	0.010438	
6619.847576	0.004488	
6619.849073	0.005298	
6619.850819	0.012992	
6619.852299	-0.006207	
6619.854082	-0.017547	
6619.855557	-0.015516	
6619.857332	-0.019484	
6619.858813	-0.024399	
6619.860579	-0.009329	
6619.862072	0.009443	
6619.863832	0.002740	
6619.865336	0.007647	
6619.867049	0.016424	
6619.868570	-0.001288	
6619.870292	-0.016016	
6619.871823	-0.015085	
6619.873544	-0.016652	
6619.875105	-0.019520	
6619.876784	-0.011738	
